"S12 Phase"
"Frequency (Hz)","Deg",
3500000000, -1.291793e+002,
3501250000, -1.308340e+002,
3502500000, -1.326114e+002,
3503750000, -1.344349e+002,
3505000000, -1.363502e+002,
3506250000, -1.380411e+002,
3507500000, -1.396950e+002,
3508750000, -1.413692e+002,
3510000000, -1.433181e+002,
3511250000, -1.452605e+002,
3512500000, -1.471000e+002,
3513750000, -1.487359e+002,
3515000000, -1.502177e+002,
3516250000, -1.521269e+002,
3517500000, -1.539771e+002,
3518750000, -1.556924e+002,
3520000000, -1.574024e+002,
3521250000, -1.591048e+002,
3522500000, -1.607017e+002,
3523750000, -1.622891e+002,
3525000000, -1.641713e+002,
3526250000, -1.659178e+002,
3527500000, -1.678024e+002,
3528750000, -1.690337e+002,
3530000000, -1.709727e+002,
3531250000, -1.724038e+002,
3532500000, -1.741702e+002,
3533750000, -1.761693e+002,
3535000000, -1.776570e+002,
3536250000, -1.791947e+002,
3537500000, 1.789973e+002,
3538750000, 1.777285e+002,
3540000000, 1.762785e+002,
3541250000, 1.743592e+002,
3542500000, 1.727971e+002,
3543750000, 1.712352e+002,
3545000000, 1.697648e+002,
3546250000, 1.680404e+002,
3547500000, 1.661562e+002,
3548750000, 1.646206e+002,
3550000000, 1.634791e+002,
3551250000, 1.620018e+002,
3552500000, 1.603646e+002,
3553750000, 1.589100e+002,
3555000000, 1.572624e+002,
3556250000, 1.561129e+002,
3557500000, 1.544609e+002,
3558750000, 1.527947e+002,
3560000000, 1.513466e+002,
3561250000, 1.502019e+002,
3562500000, 1.489327e+002,
3563750000, 1.472192e+002,
3565000000, 1.460242e+002,
3566250000, 1.443050e+002,
3567500000, 1.430551e+002,
3568750000, 1.416838e+002,
3570000000, 1.396403e+002,
3571250000, 1.382601e+002,
3572500000, 1.370986e+002,
3573750000, 1.357174e+002,
3575000000, 1.342567e+002,
3576250000, 1.329542e+002,
3577500000, 1.314576e+002,
3578750000, 1.301269e+002,
3580000000, 1.280482e+002,
3581250000, 1.269745e+002,
3582500000, 1.256699e+002,
3583750000, 1.242982e+002,
3585000000, 1.229737e+002,
3586250000, 1.218333e+002,
3587500000, 1.200717e+002,
3588750000, 1.185506e+002,
3590000000, 1.170660e+002,
3591250000, 1.155672e+002,
3592500000, 1.140313e+002,
3593750000, 1.122650e+002,
3595000000, 1.109800e+002,
3596250000, 1.094206e+002,
3597500000, 1.080222e+002,
3598750000, 1.067249e+002,
3600000000, 1.051695e+002,
3601250000, 1.037525e+002,
3602500000, 1.022628e+002,
3603750000, 1.008044e+002,
3605000000, 9.905386e+001,
3606250000, 9.790356e+001,
3607500000, 9.605348e+001,
3608750000, 9.477805e+001,
3610000000, 9.337272e+001,
3611250000, 9.166398e+001,
3612500000, 9.018516e+001,
3613750000, 8.857782e+001,
3615000000, 8.700179e+001,
3616250000, 8.517434e+001,
3617500000, 8.367667e+001,
3618750000, 8.205204e+001,
3620000000, 8.064819e+001,
3621250000, 7.904641e+001,
3622500000, 7.731592e+001,
3623750000, 7.587618e+001,
3625000000, 7.456220e+001,
3626250000, 7.290331e+001,
3627500000, 7.111753e+001,
3628750000, 6.950823e+001,
3630000000, 6.796700e+001,
3631250000, 6.616767e+001,
3632500000, 6.442098e+001,
3633750000, 6.322327e+001,
3635000000, 6.168155e+001,
3636250000, 5.997923e+001,
3637500000, 5.838855e+001,
3638750000, 5.643772e+001,
3640000000, 5.503631e+001,
3641250000, 5.348932e+001,
3642500000, 5.142373e+001,
3643750000, 5.022943e+001,
3645000000, 4.887867e+001,
3646250000, 4.701757e+001,
3647500000, 4.489558e+001,
3648750000, 4.355186e+001,
3650000000, 4.254124e+001,
3651250000, 4.078566e+001,
3652500000, 3.904304e+001,
3653750000, 3.756281e+001,
3655000000, 3.602703e+001,
3656250000, 3.438934e+001,
3657500000, 3.188800e+001,
3658750000, 3.035328e+001,
3660000000, 2.933390e+001,
3661250000, 2.813723e+001,
3662500000, 2.637409e+001,
3663750000, 2.425961e+001,
3665000000, 2.268555e+001,
3666250000, 2.116760e+001,
3667500000, 1.898276e+001,
3668750000, 1.734523e+001,
3670000000, 1.674635e+001,
3671250000, 1.550687e+001,
3672500000, 1.269837e+001,
3673750000, 1.107692e+001,
3675000000, 9.761045e+000,
3676250000, 8.921765e+000,
3677500000, 7.280597e+000,
3678750000, 5.724031e+000,
3680000000, 4.320091e+000,
3681250000, 2.551142e+000,
3682500000, 6.431645e-001,
3683750000, -1.349639e+000,
3685000000, -3.000410e+000,
3686250000, -3.811919e+000,
3687500000, -4.818827e+000,
3688750000, -6.310576e+000,
3690000000, -8.333745e+000,
3691250000, -9.955002e+000,
3692500000, -1.156553e+001,
3693750000, -1.284474e+001,
3695000000, -1.464035e+001,
3696250000, -1.650297e+001,
3697500000, -1.757822e+001,
3698750000, -1.837951e+001,
3700000000, -2.019973e+001,
3701250000, -2.265491e+001,
3702500000, -2.427114e+001,
3703750000, -2.516103e+001,
3705000000, -2.639699e+001,
3706250000, -2.716437e+001,
3707500000, -2.887600e+001,
3708750000, -3.034333e+001,
3710000000, -3.221333e+001,
3711250000, -3.459837e+001,
3712500000, -3.602418e+001,
3713750000, -3.718001e+001,
3715000000, -3.740321e+001,
3716250000, -3.877249e+001,
3717500000, -4.045467e+001,
3718750000, -4.272780e+001,
3720000000, -4.403608e+001,
3721250000, -4.481167e+001,
3722500000, -4.666102e+001,
3723750000, -4.903273e+001,
3725000000, -5.050317e+001,
3726250000, -5.137179e+001,
3727500000, -5.271885e+001,
3728750000, -5.466037e+001,
3730000000, -5.682897e+001,
3731250000, -5.813067e+001,
3732500000, -5.893701e+001,
3733750000, -6.027557e+001,
3735000000, -6.222469e+001,
3736250000, -6.366865e+001,
3737500000, -6.492981e+001,
3738750000, -6.677328e+001,
3740000000, -6.914899e+001,
3741250000, -7.097551e+001,
3742500000, -7.178068e+001,
3743750000, -7.285035e+001,
3745000000, -7.420317e+001,
3746250000, -7.603429e+001,
3747500000, -7.776531e+001,
3748750000, -7.965561e+001,
3750000000, -8.075994e+001,
3751250000, -8.208008e+001,
3752500000, -8.462621e+001,
3753750000, -8.679919e+001,
3755000000, -8.882397e+001,
3756250000, -8.998685e+001,
3757500000, -9.174792e+001,
3758750000, -9.360277e+001,
3760000000, -9.538709e+001,
3761250000, -9.711466e+001,
3762500000, -9.786681e+001,
3763750000, -9.982010e+001,
3765000000, -1.023567e+002,
3766250000, -1.042604e+002,
3767500000, -1.057454e+002,
3768750000, -1.075955e+002,
3770000000, -1.097161e+002,
3771250000, -1.111216e+002,
3772500000, -1.121833e+002,
3773750000, -1.134547e+002,
3775000000, -1.156683e+002,
3776250000, -1.179675e+002,
3777500000, -1.196555e+002,
3778750000, -1.213796e+002,
3780000000, -1.225869e+002,
3781250000, -1.241561e+002,
3782500000, -1.262720e+002,
3783750000, -1.283347e+002,
3785000000, -1.311251e+002,
3786250000, -1.338922e+002,
3787500000, -1.349902e+002,
3788750000, -1.351161e+002,
3790000000, -1.380163e+002,
3791250000, -1.409558e+002,
3792500000, -1.416775e+002,
3793750000, -1.422708e+002,
3795000000, -1.444866e+002,
3796250000, -1.470926e+002,
3797500000, -1.492740e+002,
3798750000, -1.516256e+002,
3800000000, -1.536487e+002,
3801250000, -1.549335e+002,
3802500000, -1.556126e+002,
3803750000, -1.571215e+002,
3805000000, -1.596579e+002,
3806250000, -1.608891e+002,
3807500000, -1.623814e+002,
3808750000, -1.653433e+002,
3810000000, -1.672666e+002,
3811250000, -1.688041e+002,
3812500000, -1.699977e+002,
3813750000, -1.712262e+002,
3815000000, -1.733468e+002,
3816250000, -1.755842e+002,
3817500000, -1.787640e+002,
3818750000, 1.782331e+002,
3820000000, 1.780620e+002,
3821250000, 1.777764e+002,
3822500000, 1.757475e+002,
3823750000, 1.731840e+002,
3825000000, 1.721820e+002,
3826250000, 1.710166e+002,
3827500000, 1.696098e+002,
3828750000, 1.689595e+002,
3830000000, 1.657943e+002,
3831250000, 1.631021e+002,
3832500000, 1.611899e+002,
3833750000, 1.610287e+002,
3835000000, 1.622442e+002,
3836250000, 1.597235e+002,
3837500000, 1.569673e+002,
3838750000, 1.564512e+002,
3840000000, 1.551632e+002,
3841250000, 1.527240e+002,
3842500000, 1.511781e+002,
3843750000, 1.497328e+002,
3845000000, 1.484120e+002,
3846250000, 1.477496e+002,
3847500000, 1.460630e+002,
3848750000, 1.443022e+002,
3850000000, 1.413033e+002,
3851250000, 1.380773e+002,
3852500000, 1.372333e+002,
3853750000, 1.374163e+002,
3855000000, 1.363362e+002,
3856250000, 1.356405e+002,
3857500000, 1.346892e+002,
3858750000, 1.319877e+002,
3860000000, 1.298101e+002,
3861250000, 1.297129e+002,
3862500000, 1.285568e+002,
3863750000, 1.267001e+002,
3865000000, 1.240903e+002,
3866250000, 1.232616e+002,
3867500000, 1.232524e+002,
3868750000, 1.220418e+002,
3870000000, 1.201632e+002,
3871250000, 1.196645e+002,
3872500000, 1.198368e+002,
3873750000, 1.174104e+002,
3875000000, 1.146006e+002,
3876250000, 1.136003e+002,
3877500000, 1.125714e+002,
3878750000, 1.113098e+002,
3880000000, 1.096560e+002,
3881250000, 1.078654e+002,
3882500000, 1.062474e+002,
3883750000, 1.051718e+002,
3885000000, 1.033441e+002,
3886250000, 1.019275e+002,
3887500000, 1.002364e+002,
3888750000, 9.733932e+001,
3890000000, 9.749769e+001,
3891250000, 9.848276e+001,
3892500000, 9.722844e+001,
3893750000, 9.444780e+001,
3895000000, 9.336305e+001,
3896250000, 9.344632e+001,
3897500000, 9.200494e+001,
3898750000, 9.027699e+001,
3900000000, 8.811794e+001,
3901250000, 8.615580e+001,
3902500000, 8.499365e+001,
3903750000, 8.355140e+001,
3905000000, 8.313949e+001,
3906250000, 8.479745e+001,
3907500000, 8.424723e+001,
3908750000, 8.144053e+001,
3910000000, 7.732588e+001,
3911250000, 7.500828e+001,
3912500000, 7.310213e+001,
3913750000, 7.244124e+001,
3915000000, 7.160102e+001,
3916250000, 7.047058e+001,
3917500000, 6.879275e+001,
3918750000, 6.648337e+001,
3920000000, 6.458846e+001,
3921250000, 6.336130e+001,
3922500000, 6.045274e+001,
3923750000, 5.718849e+001,
3925000000, 5.725724e+001,
3926250000, 5.924666e+001,
3927500000, 5.957647e+001,
3928750000, 5.624428e+001,
3930000000, 5.200941e+001,
3931250000, 4.996208e+001,
3932500000, 4.876499e+001,
3933750000, 4.821000e+001,
3935000000, 4.832867e+001,
3936250000, 4.796555e+001,
3937500000, 4.539271e+001,
3938750000, 4.196064e+001,
3940000000, 3.915777e+001,
3941250000, 3.916799e+001,
3942500000, 4.161084e+001,
3943750000, 4.023918e+001,
3945000000, 3.590630e+001,
3946250000, 3.218441e+001,
3947500000, 2.974468e+001,
3948750000, 2.920612e+001,
3950000000, 2.774982e+001,
3951250000, 2.591343e+001,
3952500000, 2.400813e+001,
3953750000, 2.130515e+001,
3955000000, 1.844806e+001,
3956250000, 1.753952e+001,
3957500000, 1.754347e+001,
3958750000, 1.510429e+001,
3960000000, 1.025433e+001,
3961250000, 8.288894e+000,
3962500000, 9.648630e+000,
3963750000, 1.041250e+001,
3965000000, 1.258584e+001,
3966250000, 1.178849e+001,
3967500000, 6.738909e+000,
3968750000, -1.442296e+000,
3970000000, -6.739921e+000,
3971250000, -7.207272e+000,
3972500000, -4.308732e+000,
3973750000, 1.696795e-001,
3975000000, -1.037080e+000,
3976250000, -3.614769e+000,
3977500000, -5.735403e+000,
3978750000, -7.952564e+000,
3980000000, -1.056277e+001,
3981250000, -1.396222e+001,
3982500000, -1.673021e+001,
3983750000, -1.958331e+001,
3985000000, -2.278211e+001,
3986250000, -2.527637e+001,
3987500000, -2.352927e+001,
3988750000, -2.173929e+001,
3990000000, -2.453597e+001,
3991250000, -2.894551e+001,
3992500000, -3.228375e+001,
3993750000, -3.127591e+001,
3995000000, -3.031190e+001,
3996250000, -3.439332e+001,
3997500000, -4.042017e+001,
3998750000, -4.664748e+001,
4000000000, -5.139619e+001,
4001250000, -5.048096e+001,
4002500000, -4.264625e+001,
4003750000, -3.420498e+001,
4005000000, -3.022465e+001,
4006250000, -3.526537e+001,
4007500000, -4.710606e+001,
4008750000, -5.849700e+001,
4010000000, -6.387872e+001,
4011250000, -6.287972e+001,
4012500000, -5.912917e+001,
4013750000, -5.671471e+001,
4015000000, -5.802695e+001,
4016250000, -5.707117e+001,
4017500000, -5.514637e+001,
4018750000, -5.320161e+001,
4020000000, -5.527853e+001,
4021250000, -6.205027e+001,
4022500000, -6.874577e+001,
4023750000, -7.357035e+001,
4025000000, -7.881490e+001,
4026250000, -8.320301e+001,
4027500000, -8.510492e+001,
4028750000, -8.403657e+001,
4030000000, -8.327122e+001,
4031250000, -8.331650e+001,
4032500000, -8.236492e+001,
4033750000, -7.823931e+001,
4035000000, -7.425323e+001,
4036250000, -7.695724e+001,
4037500000, -8.499606e+001,
4038750000, -9.252556e+001,
4040000000, -1.036797e+002,
4041250000, -1.146900e+002,
4042500000, -1.162133e+002,
4043750000, -1.047913e+002,
4045000000, -9.359280e+001,
4046250000, -8.572591e+001,
4047500000, -8.584206e+001,
4048750000, -9.189115e+001,
4050000000, -1.002173e+002,
4051250000, -1.080243e+002,
4052500000, -1.131117e+002,
4053750000, -1.164826e+002,
4055000000, -1.188947e+002,
4056250000, -1.216092e+002,
4057500000, -1.196590e+002,
4058750000, -1.168241e+002,
4060000000, -1.135479e+002,
4061250000, -1.102931e+002,
4062500000, -1.121494e+002,
4063750000, -1.193772e+002,
4065000000, -1.265601e+002,
4066250000, -1.293522e+002,
4067500000, -1.314594e+002,
4068750000, -1.366343e+002,
4070000000, -1.426932e+002,
4071250000, -1.494827e+002,
4072500000, -1.554554e+002,
4073750000, -1.569146e+002,
4075000000, -1.523033e+002,
4076250000, -1.415031e+002,
4077500000, -1.191134e+002,
4078750000, -1.175959e+002,
4080000000, -1.361684e+002,
4081250000, -1.496117e+002,
4082500000, -1.592351e+002,
4083750000, -1.654908e+002,
4085000000, -1.675215e+002,
4086250000, -1.636229e+002,
4087500000, -1.646188e+002,
4088750000, -1.676353e+002,
4090000000, -1.656912e+002,
4091250000, -1.594852e+002,
4092500000, -1.550228e+002,
4093750000, -1.553942e+002,
4095000000, -1.582063e+002,
4096250000, -1.609637e+002,
4097500000, -1.626582e+002,
4098750000, -1.661437e+002,
4100000000, -1.726626e+002,
4101250000, -1.784615e+002,
4102500000, -1.777649e+002,
4103750000, 1.790875e+002,
4105000000, 1.739706e+002,
4106250000, 1.692236e+002,
4107500000, 1.644793e+002,
4108750000, 1.619140e+002,
4110000000, 1.740726e+002,
4111250000, -1.729575e+002,
4112500000, -1.722869e+002,
4113750000, 1.795645e+002,
4115000000, 1.674394e+002,
4116250000, 1.533217e+002,
4117500000, 1.385494e+002,
4118750000, 1.276521e+002,
4120000000, 1.215762e+002,
4121250000, 1.371419e+002,
4122500000, -1.607316e+002,
4123750000, 1.799133e+002,
4125000000, 1.618488e+002,
4126250000, 1.555315e+002,
4127500000, 1.561347e+002,
4128750000, 1.577195e+002,
4130000000, 1.605814e+002,
4131250000, 1.563391e+002,
4132500000, 1.431313e+002,
4133750000, 1.293565e+002,
4135000000, 1.168987e+002,
4136250000, 1.100892e+002,
4137500000, 1.106949e+002,
4138750000, 1.372249e+002,
4140000000, 1.680907e+002,
4141250000, 1.709720e+002,
4142500000, 1.653090e+002,
4143750000, 1.543418e+002,
4145000000, 1.424682e+002,
4146250000, 1.367755e+002,
4147500000, 1.330653e+002,
4148750000, 1.293534e+002,
4150000000, 1.225425e+002,
4151250000, 1.118477e+002,
4152500000, 1.033034e+002,
4153750000, 9.768929e+001,
4155000000, 8.830558e+001,
4156250000, 9.517732e+001,
4157500000, 1.403264e+002,
4158750000, 1.553009e+002,
4160000000, 1.463040e+002,
4161250000, 1.313316e+002,
4162500000, 1.153605e+002,
4163750000, 1.000116e+002,
4165000000, 8.669050e+001,
4166250000, 7.893263e+001,
4167500000, 9.008333e+001,
4168750000, 1.059523e+002,
4170000000, 1.018285e+002,
4171250000, 9.420848e+001,
4172500000, 8.476227e+001,
4173750000, 8.061742e+001,
4175000000, 1.066309e+002,
4176250000, 1.407126e+002,
4177500000, 1.535264e+002,
4178750000, 1.468666e+002,
4180000000, 1.258532e+002,
4181250000, 1.002742e+002,
4182500000, 7.841132e+001,
4183750000, 5.956129e+001,
4185000000, 4.226476e+001,
4186250000, 2.360468e+001,
4187500000, -4.215705e-001,
4188750000, -4.879441e+001,
4190000000, -1.605475e+002,
4191250000, 1.642979e+002,
4192500000, 1.537849e+002,
4193750000, 1.371580e+002,
4195000000, 1.154273e+002,
4196250000, 9.694167e+001,
4197500000, 8.054196e+001,
4198750000, 6.412981e+001,
4200000000, 4.715561e+001,
4201250000, 3.071164e+001,
4202500000, 1.275837e+001,
4203750000, -1.685088e+001,
4205000000, -6.276936e+001,
4206250000, -1.682351e+002,
4207500000, 1.315571e+002,
4208750000, 1.076655e+002,
4210000000, 9.439578e+001,
4211250000, 8.382777e+001,
4212500000, 6.927682e+001,
4213750000, 4.932406e+001,
4215000000, 2.682787e+001,
4216250000, 4.691432e+001,
4217500000, 9.575899e+001,
4218750000, 7.314059e+001,
4220000000, 5.076558e+001,
4221250000, 3.478423e+001,
4222500000, 2.064829e+001,
4223750000, 7.098881e+000,
4225000000, -1.071179e+001,
4226250000, -4.082666e+001,
4227500000, -9.171808e+001,
4228750000, -1.579836e+002,
4230000000, 1.451212e+002,
4231250000, 1.061945e+002,
4232500000, 8.145823e+001,
4233750000, 6.566013e+001,
4235000000, 5.112038e+001,
4236250000, 3.181940e+001,
4237500000, 1.068846e+001,
4238750000, -1.005511e+001,
4240000000, -2.769985e+001,
4241250000, -4.311178e+001,
4242500000, -6.576257e+001,
4243750000, -1.059048e+002,
4245000000, -1.697107e+002,
4246250000, 1.245669e+002,
4247500000, 8.368255e+001,
4248750000, 5.871489e+001,
4250000000, 4.272905e+001,
4251250000, 2.825078e+001,
4252500000, 1.231462e+001,
4253750000, -7.566017e+000,
4255000000, -3.483838e+001,
4256250000, -5.607574e+001,
4257500000, -4.496951e+001,
4258750000, -1.122035e+001,
4260000000, 1.629916e+000,
4261250000, 6.935457e+000,
4262500000, -7.773093e+000,
4263750000, -3.766496e+001,
4265000000, -6.899120e+001,
4266250000, -9.626434e+001,
4267500000, -1.241787e+002,
4268750000, -1.640208e+002,
4270000000, 1.430464e+002,
4271250000, 9.546282e+001,
4272500000, 5.788277e+001,
4273750000, 3.137418e+001,
4275000000, 1.364466e+001,
4276250000, -3.662064e+000,
4277500000, -2.311075e+001,
4278750000, -4.349100e+001,
4280000000, -6.147195e+001,
4281250000, -7.881357e+001,
4282500000, -1.064928e+002,
4283750000, -1.416309e+002,
4285000000, -1.751407e+002,
4286250000, 1.535925e+002,
4287500000, 1.231144e+002,
4288750000, 9.290622e+001,
4290000000, 6.312183e+001,
4291250000, 3.339946e+001,
4292500000, 5.047865e+000,
4293750000, -2.031953e+001,
4295000000, -3.995672e+001,
4296250000, -5.619002e+001,
4297500000, -7.336156e+001,
4298750000, -9.447589e+001,
4300000000, -1.227144e+002,
4301250000, -1.578640e+002,
4302500000, 1.633806e+002,
4303750000, 1.205401e+002,
4305000000, 8.461155e+001,
4306250000, 5.621845e+001,
4307500000, 2.597130e+001,
4308750000, -5.106498e+000,
4310000000, -3.222905e+001,
4311250000, -6.225543e+001,
4312500000, -9.812541e+001,
4313750000, -1.386142e+002,
4315000000, 1.689985e+002,
4316250000, 8.587629e+001,
4317500000, 2.928376e+001,
4318750000, 2.764646e+000,
4320000000, -9.246830e+000,
4321250000, -3.492415e+001,
4322500000, -6.530249e+001,
4323750000, -9.330598e+001,
4325000000, -1.167872e+002,
4326250000, -1.389045e+002,
4327500000, -1.626640e+002,
4328750000, 1.749117e+002,
4330000000, 1.503599e+002,
4331250000, 1.086258e+002,
4332500000, 7.147408e+001,
4333750000, 3.599064e+001,
4335000000, 3.835068e+000,
4336250000, -1.948022e+001,
4337500000, -3.935329e+001,
4338750000, -5.876825e+001,
4340000000, -7.696347e+001,
4341250000, -9.830502e+001,
4342500000, -1.242219e+002,
4343750000, -1.593601e+002,
4345000000, 1.647355e+002,
4346250000, 1.441660e+002,
4347500000, 1.300399e+002,
4348750000, 1.118642e+002,
4350000000, 9.031767e+001,
4351250000, 6.645674e+001,
4352500000, 3.708113e+001,
4353750000, -5.296672e-001,
4355000000, -4.208619e+001,
4356250000, -7.857436e+001,
4357500000, -1.044436e+002,
4358750000, -1.198666e+002,
4360000000, -1.310223e+002,
4361250000, -1.430077e+002,
4362500000, -1.553169e+002,
4363750000, -1.720938e+002,
4365000000, 1.624301e+002,
4366250000, 1.329747e+002,
4367500000, 9.982977e+001,
4368750000, 6.174408e+001,
4370000000, 2.298329e+001,
4371250000, -2.235591e+001,
4372500000, -7.379134e+001,
4373750000, -1.290042e+002,
4375000000, -1.752462e+002,
4376250000, 1.367330e+002,
4377500000, 9.433200e+001,
4378750000, 5.794249e+001,
4380000000, 2.501323e+001,
4381250000, -1.056799e+001,
4382500000, -4.056805e+001,
4383750000, -5.817099e+001,
4385000000, -6.783083e+001,
4386250000, -8.325438e+001,
4387500000, -1.022474e+002,
4388750000, -1.200144e+002,
4390000000, -1.452995e+002,
4391250000, -1.711952e+002,
4392500000, 1.764615e+002,
4393750000, 1.625963e+002,
4395000000, 1.389740e+002,
4396250000, 1.128531e+002,
4397500000, 8.702023e+001,
4398750000, 6.126696e+001,
4400000000, 3.481844e+001,
4401250000, 5.097333e+000,
4402500000, -3.040232e+001,
4403750000, -7.292079e+001,
4405000000, -1.125026e+002,
4406250000, -1.461390e+002,
