"S12 Phase"
"Frequency (Hz)","Deg",
3000000000, 1.629844e+002,
3001562500, 1.612326e+002,
3003125000, 1.591236e+002,
3004687500, 1.573174e+002,
3006250000, 1.558195e+002,
3007812500, 1.538628e+002,
3009375000, 1.520580e+002,
3010937500, 1.498890e+002,
3012500000, 1.482056e+002,
3014062500, 1.461864e+002,
3015625000, 1.444647e+002,
3017187500, 1.424931e+002,
3018750000, 1.406822e+002,
3020312500, 1.385541e+002,
3021875000, 1.366223e+002,
3023437500, 1.345664e+002,
3025000000, 1.326483e+002,
3026562500, 1.307753e+002,
3028125000, 1.286742e+002,
3029687500, 1.266226e+002,
3031250000, 1.244791e+002,
3032812500, 1.226607e+002,
3034375000, 1.206318e+002,
3035937500, 1.186852e+002,
3037500000, 1.166210e+002,
3039062500, 1.144124e+002,
3040625000, 1.124128e+002,
3042187500, 1.103687e+002,
3043750000, 1.082666e+002,
3045312500, 1.057503e+002,
3046875000, 1.041131e+002,
3048437500, 1.016854e+002,
3050000000, 9.970741e+001,
3051562500, 9.711685e+001,
3053125000, 9.548802e+001,
3054687500, 9.286018e+001,
3056250000, 9.092479e+001,
3057812500, 8.854790e+001,
3059375000, 8.623448e+001,
3060937500, 8.399912e+001,
3062500000, 8.193438e+001,
3064062500, 7.993803e+001,
3065625000, 7.728582e+001,
3067187500, 7.555865e+001,
3068750000, 7.328551e+001,
3070312500, 7.124330e+001,
3071875000, 6.932760e+001,
3073437500, 6.686371e+001,
3075000000, 6.454375e+001,
3076562500, 6.245485e+001,
3078125000, 6.044234e+001,
3079687500, 5.787128e+001,
3081250000, 5.582452e+001,
3082812500, 5.353944e+001,
3084375000, 5.164677e+001,
3085937500, 4.951557e+001,
3087500000, 4.700862e+001,
3089062500, 4.523603e+001,
3090625000, 4.285204e+001,
3092187500, 4.094079e+001,
3093750000, 3.905361e+001,
3095312500, 3.630132e+001,
3096875000, 3.453063e+001,
3098437500, 3.224351e+001,
3100000000, 3.021815e+001,
3101562500, 2.828794e+001,
3103125000, 2.605991e+001,
3104687500, 2.415969e+001,
3106250000, 2.226872e+001,
3107812500, 1.955889e+001,
3109375000, 1.822579e+001,
3110937500, 1.549087e+001,
3112500000, 1.350908e+001,
3114062500, 1.167567e+001,
3115625000, 9.205024e+000,
3117187500, 7.318026e+000,
3118750000, 5.230957e+000,
3120312500, 3.191618e+000,
3121875000, 1.317005e+000,
3123437500, -9.649322e-001,
3125000000, -2.939222e+000,
3126562500, -4.890024e+000,
3128125000, -7.382642e+000,
3129687500, -8.994624e+000,
3131250000, -1.118680e+001,
3132812500, -1.360183e+001,
3134375000, -1.554106e+001,
3135937500, -1.742479e+001,
3137500000, -1.989103e+001,
3139062500, -2.210751e+001,
3140625000, -2.391240e+001,
3142187500, -2.622357e+001,
3143750000, -2.833392e+001,
3145312500, -3.062209e+001,
3146875000, -3.290312e+001,
3148437500, -3.493709e+001,
3150000000, -3.705434e+001,
3151562500, -3.935242e+001,
3153125000, -4.148579e+001,
3154687500, -4.337956e+001,
3156250000, -4.606092e+001,
3157812500, -4.809397e+001,
3159375000, -4.994642e+001,
3160937500, -5.253050e+001,
3162500000, -5.448567e+001,
3164062500, -5.653947e+001,
3165625000, -5.927763e+001,
3167187500, -6.134114e+001,
3168750000, -6.363069e+001,
3170312500, -6.601208e+001,
3171875000, -6.797940e+001,
3173437500, -7.020853e+001,
3175000000, -7.219041e+001,
3176562500, -7.453287e+001,
3178125000, -7.694762e+001,
3179687500, -7.883012e+001,
3181250000, -8.103975e+001,
3182812500, -8.315074e+001,
3184375000, -8.516352e+001,
3185937500, -8.730203e+001,
3187500000, -8.932945e+001,
3189062500, -9.162926e+001,
3190625000, -9.401005e+001,
3192187500, -9.596438e+001,
3193750000, -9.809111e+001,
3195312500, -9.984517e+001,
3196875000, -1.021001e+002,
3198437500, -1.045517e+002,
3200000000, -1.066665e+002,
3201562500, -1.085686e+002,
3203125000, -1.109419e+002,
3204687500, -1.125085e+002,
3206250000, -1.148658e+002,
3207812500, -1.166060e+002,
3209375000, -1.186624e+002,
3210937500, -1.208506e+002,
3212500000, -1.230214e+002,
3214062500, -1.250773e+002,
3215625000, -1.266676e+002,
3217187500, -1.287807e+002,
3218750000, -1.306636e+002,
3220312500, -1.328156e+002,
3221875000, -1.346940e+002,
3223437500, -1.362919e+002,
3225000000, -1.387057e+002,
3226562500, -1.412507e+002,
3228125000, -1.429537e+002,
3229687500, -1.447035e+002,
3231250000, -1.470201e+002,
3232812500, -1.485588e+002,
3234375000, -1.501844e+002,
3235937500, -1.523006e+002,
3237500000, -1.545252e+002,
3239062500, -1.559758e+002,
3240625000, -1.580471e+002,
3242187500, -1.593911e+002,
3243750000, -1.610663e+002,
3245312500, -1.627468e+002,
3246875000, -1.642813e+002,
3248437500, -1.666122e+002,
3250000000, -1.681573e+002,
3251562500, -1.697859e+002,
3253125000, -1.712637e+002,
3254687500, -1.728207e+002,
3256250000, -1.745687e+002,
3257812500, -1.762242e+002,
3259375000, -1.777241e+002,
3260937500, -1.795423e+002,
3262500000, 1.786502e+002,
3264062500, 1.769999e+002,
3265625000, 1.752610e+002,
3267187500, 1.736977e+002,
3268750000, 1.717489e+002,
3270312500, 1.700321e+002,
3271875000, 1.685274e+002,
3273437500, 1.671170e+002,
3275000000, 1.651533e+002,
3276562500, 1.637078e+002,
3278125000, 1.617401e+002,
3279687500, 1.599967e+002,
3281250000, 1.587527e+002,
3282812500, 1.568171e+002,
3284375000, 1.554454e+002,
3285937500, 1.534707e+002,
3287500000, 1.522453e+002,
3289062500, 1.500491e+002,
3290625000, 1.486050e+002,
3292187500, 1.464640e+002,
3293750000, 1.448078e+002,
3295312500, 1.426765e+002,
3296875000, 1.412441e+002,
3298437500, 1.397994e+002,
3300000000, 1.373125e+002,
3301562500, 1.360636e+002,
3303125000, 1.336849e+002,
3304687500, 1.317163e+002,
3306250000, 1.297879e+002,
3307812500, 1.277505e+002,
3309375000, 1.254215e+002,
3310937500, 1.234777e+002,
3312500000, 1.217174e+002,
3314062500, 1.198622e+002,
3315625000, 1.179381e+002,
3317187500, 1.157041e+002,
3318750000, 1.134497e+002,
3320312500, 1.113615e+002,
3321875000, 1.091328e+002,
3323437500, 1.074274e+002,
3325000000, 1.051178e+002,
3326562500, 1.030248e+002,
3328125000, 1.010640e+002,
3329687500, 9.905944e+001,
3331250000, 9.676207e+001,
3332812500, 9.467508e+001,
3334375000, 9.225591e+001,
3335937500, 9.007383e+001,
3337500000, 8.765437e+001,
3339062500, 8.535121e+001,
3340625000, 8.284325e+001,
3342187500, 8.045427e+001,
3343750000, 7.791536e+001,
3345312500, 7.592188e+001,
3346875000, 7.314148e+001,
3348437500, 7.097687e+001,
3350000000, 6.846239e+001,
3351562500, 6.617632e+001,
3353125000, 6.386366e+001,
3354687500, 6.164608e+001,
3356250000, 5.913210e+001,
3357812500, 5.692968e+001,
3359375000, 5.430767e+001,
3360937500, 5.222392e+001,
3362500000, 5.002889e+001,
3364062500, 4.784796e+001,
3365625000, 4.541350e+001,
3367187500, 4.285918e+001,
3368750000, 4.086721e+001,
3370312500, 3.877004e+001,
3371875000, 3.633980e+001,
3373437500, 3.405322e+001,
3375000000, 3.185868e+001,
3376562500, 2.955575e+001,
3378125000, 2.759910e+001,
3379687500, 2.532323e+001,
3381250000, 2.290128e+001,
3382812500, 2.077703e+001,
3384375000, 1.880992e+001,
3385937500, 1.657720e+001,
3387500000, 1.440472e+001,
3389062500, 1.198294e+001,
3390625000, 9.757346e+000,
3392187500, 7.788629e+000,
3393750000, 5.534390e+000,
3395312500, 3.672151e+000,
3396875000, 1.326136e+000,
3398437500, -2.305159e-001,
3400000000, -2.337228e+000,
3401562500, -4.421935e+000,
3403125000, -6.213601e+000,
3404687500, -8.380535e+000,
3406250000, -1.005564e+001,
3407812500, -1.260619e+001,
3409375000, -1.431977e+001,
3410937500, -1.573455e+001,
3412500000, -1.839260e+001,
3414062500, -2.004764e+001,
3415625000, -2.184781e+001,
3417187500, -2.395620e+001,
3418750000, -2.565423e+001,
3420312500, -2.724358e+001,
3421875000, -2.878420e+001,
3423437500, -3.082890e+001,
3425000000, -3.231867e+001,
3426562500, -3.486971e+001,
3428125000, -3.640441e+001,
3429687500, -3.820232e+001,
3431250000, -4.023932e+001,
3432812500, -4.156175e+001,
3434375000, -4.351017e+001,
3435937500, -4.587588e+001,
3437500000, -4.764943e+001,
3439062500, -4.931153e+001,
3440625000, -5.101998e+001,
3442187500, -5.291291e+001,
3443750000, -5.510236e+001,
3445312500, -5.713251e+001,
3446875000, -5.914158e+001,
3448437500, -6.119262e+001,
3450000000, -6.296092e+001,
3451562500, -6.501514e+001,
3453125000, -6.695667e+001,
3454687500, -6.902688e+001,
3456250000, -7.145514e+001,
3457812500, -7.331438e+001,
3459375000, -7.515567e+001,
3460937500, -7.717901e+001,
3462500000, -7.939118e+001,
3464062500, -8.154161e+001,
3465625000, -8.317811e+001,
3467187500, -8.584106e+001,
3468750000, -8.816259e+001,
3470312500, -9.018811e+001,
3471875000, -9.183778e+001,
3473437500, -9.424942e+001,
3475000000, -9.702174e+001,
3476562500, -9.891134e+001,
3478125000, -1.010256e+002,
3479687500, -1.026158e+002,
3481250000, -1.050779e+002,
3482812500, -1.073672e+002,
3484375000, -1.094775e+002,
3485937500, -1.113314e+002,
3487500000, -1.140229e+002,
3489062500, -1.167000e+002,
3490625000, -1.184372e+002,
3492187500, -1.200740e+002,
3493750000, -1.225843e+002,
3495312500, -1.248699e+002,
3496875000, -1.275178e+002,
3498437500, -1.296356e+002,
3500000000, -1.317059e+002,
3501562500, -1.335522e+002,
3503125000, -1.361854e+002,
3504687500, -1.382201e+002,
3506250000, -1.403766e+002,
3507812500, -1.427023e+002,
3509375000, -1.454527e+002,
3510937500, -1.472849e+002,
3512500000, -1.495317e+002,
3514062500, -1.515507e+002,
3515625000, -1.538126e+002,
3517187500, -1.560099e+002,
3518750000, -1.586024e+002,
3520312500, -1.605519e+002,
3521875000, -1.624114e+002,
3523437500, -1.646013e+002,
3525000000, -1.666652e+002,
3526562500, -1.688855e+002,
3528125000, -1.700629e+002,
3529687500, -1.730888e+002,
3531250000, -1.756067e+002,
3532812500, -1.770382e+002,
3534375000, -1.788535e+002,
3535937500, 1.787553e+002,
3537500000, 1.770489e+002,
3539062500, 1.747845e+002,
3540625000, 1.727758e+002,
3542187500, 1.704647e+002,
3543750000, 1.689158e+002,
3545312500, 1.667164e+002,
3546875000, 1.638398e+002,
3548437500, 1.630257e+002,
3550000000, 1.606932e+002,
3551562500, 1.588142e+002,
3553125000, 1.561054e+002,
3554687500, 1.542335e+002,
3556250000, 1.527538e+002,
3557812500, 1.514916e+002,
3559375000, 1.488782e+002,
3560937500, 1.473541e+002,
3562500000, 1.445757e+002,
3564062500, 1.429032e+002,
3565625000, 1.411648e+002,
3567187500, 1.395456e+002,
3568750000, 1.375358e+002,
3570312500, 1.351065e+002,
3571875000, 1.340616e+002,
3573437500, 1.325167e+002,
3575000000, 1.297650e+002,
3576562500, 1.283424e+002,
3578125000, 1.265945e+002,
3579687500, 1.248202e+002,
3581250000, 1.231366e+002,
3582812500, 1.220412e+002,
3584375000, 1.205777e+002,
3585937500, 1.177680e+002,
3587500000, 1.152692e+002,
3589062500, 1.140059e+002,
3590625000, 1.127098e+002,
3592187500, 1.106880e+002,
3593750000, 1.077709e+002,
3595312500, 1.073443e+002,
3596875000, 1.059207e+002,
3598437500, 1.027791e+002,
3600000000, 1.008969e+002,
3601562500, 9.985401e+001,
3603125000, 9.755669e+001,
3604687500, 9.584415e+001,
3606250000, 9.343473e+001,
3607812500, 9.230075e+001,
3609375000, 9.117217e+001,
3610937500, 8.788051e+001,
3612500000, 8.528018e+001,
3614062500, 8.354489e+001,
3615625000, 8.214455e+001,
3617187500, 7.978345e+001,
3618750000, 7.628797e+001,
3620312500, 7.654180e+001,
3621875000, 7.427172e+001,
3623437500, 7.091263e+001,
3625000000, 6.842503e+001,
3626562500, 6.692842e+001,
3628125000, 6.490353e+001,
3629687500, 6.318030e+001,
3631250000, 6.141722e+001,
3632812500, 5.861638e+001,
3634375000, 5.761138e+001,
3635937500, 5.492775e+001,
3637500000, 5.245452e+001,
3639062500, 5.135741e+001,
3640625000, 4.819552e+001,
3642187500, 4.595532e+001,
3643750000, 4.421734e+001,
3645312500, 4.268693e+001,
3646875000, 4.107566e+001,
3648437500, 3.875242e+001,
3650000000, 3.555454e+001,
3651562500, 3.391981e+001,
3653125000, 3.137281e+001,
3654687500, 2.947830e+001,
3656250000, 2.828022e+001,
3657812500, 2.698809e+001,
3659375000, 2.422569e+001,
3660937500, 2.196216e+001,
3662500000, 1.893135e+001,
3664062500, 1.761741e+001,
3665625000, 1.789585e+001,
3667187500, 1.350240e+001,
3668750000, 1.034052e+001,
3670312500, 9.844876e+000,
3671875000, 8.846038e+000,
3673437500, 7.935528e+000,
3675000000, 3.064508e+000,
3676562500, 2.040278e+000,
3678125000, -2.655638e-001,
3679687500, -2.278550e+000,
3681250000, -7.033748e+000,
3682812500, -6.354964e+000,
3684375000, -8.669352e+000,
3685937500, -1.041845e+001,
3687500000, -1.186682e+001,
3689062500, -1.535217e+001,
3690625000, -1.792992e+001,
3692187500, -1.830367e+001,
3693750000, -1.716933e+001,
3695312500, -2.366100e+001,
3696875000, -2.429084e+001,
3698437500, -2.699150e+001,
3700000000, -2.745927e+001,
3701562500, -2.734137e+001,
3703125000, -3.195454e+001,
3704687500, -3.420695e+001,
3706250000, -3.671321e+001,
3707812500, -3.801340e+001,
3709375000, -4.129386e+001,
3710937500, -3.926217e+001,
3712500000, -4.220439e+001,
3714062500, -4.732788e+001,
3715625000, -4.657922e+001,
3717187500, -4.816707e+001,
3718750000, -5.231759e+001,
3720312500, -5.260708e+001,
3721875000, -5.296141e+001,
3723437500, -5.698313e+001,
3725000000, -5.737962e+001,
3726562500, -5.849991e+001,
3728125000, -6.333193e+001,
3729687500, -6.337025e+001,
3731250000, -6.180573e+001,
3732812500, -6.622752e+001,
3734375000, -6.790912e+001,
3735937500, -7.081880e+001,
3737500000, -7.595393e+001,
3739062500, -7.931787e+001,
3740625000, -6.979014e+001,
3742187500, -7.389669e+001,
3743750000, -8.087125e+001,
3745312500, -8.719204e+001,
3746875000, -8.418464e+001,
3748437500, -8.323596e+001,
3750000000, -8.579802e+001,
3751562500, -8.885379e+001,
3753125000, -9.539979e+001,
3754687500, -9.327901e+001,
3756250000, -9.033972e+001,
3757812500, -9.689461e+001,
3759375000, -1.018553e+002,
3760937500, -1.005759e+002,
3762500000, -1.009121e+002,
3764062500, -1.038968e+002,
3765625000, -1.042557e+002,
3767187500, -1.105255e+002,
3768750000, -1.183558e+002,
3770312500, -1.132225e+002,
3771875000, -1.072178e+002,
3773437500, -1.122546e+002,
3775000000, -1.216451e+002,
3776562500, -1.290193e+002,
3778125000, -1.238744e+002,
3779687500, -1.234166e+002,
3781250000, -1.233688e+002,
3782812500, -1.290486e+002,
3784375000, -1.379061e+002,
3785937500, -1.366403e+002,
3787500000, -1.328203e+002,
3789062500, -1.367044e+002,
3790625000, -1.430569e+002,
3792187500, -1.448644e+002,
3793750000, -1.447164e+002,
3795312500, -1.500165e+002,
3796875000, -1.499515e+002,
3798437500, -1.510972e+002,
3800000000, -1.586069e+002,
3801562500, -1.595157e+002,
3803125000, -1.583434e+002,
3804687500, -1.566945e+002,
3806250000, -1.615091e+002,
3807812500, -1.685310e+002,
3809375000, -1.703047e+002,
3810937500, -1.738250e+002,
3812500000, -1.743176e+002,
3814062500, -1.696000e+002,
3815625000, -1.739831e+002,
3817187500, 1.786933e+002,
3818750000, 1.755222e+002,
3820312500, 1.742323e+002,
3821875000, 1.715142e+002,
3823437500, 1.705032e+002,
3825000000, 1.746935e+002,
3826562500, 1.687655e+002,
3828125000, 1.615770e+002,
3829687500, 1.570048e+002,
3831250000, 1.599059e+002,
3832812500, 1.652400e+002,
3834375000, 1.571725e+002,
3835937500, 1.581927e+002,
3837500000, 1.522534e+002,
3839062500, 1.487319e+002,
3840625000, 1.530681e+002,
3842187500, 1.550140e+002,
3843750000, 1.444836e+002,
3845312500, 1.381669e+002,
3846875000, 1.365751e+002,
3848437500, 1.409428e+002,
3850000000, 1.399358e+002,
3851562500, 1.412005e+002,
3853125000, 1.387909e+002,
3854687500, 1.319305e+002,
3856250000, 1.196294e+002,
3857812500, 1.220218e+002,
3859375000, 1.363971e+002,
3860937500, 1.298371e+002,
3862500000, 1.200758e+002,
3864062500, 1.144360e+002,
3865625000, 1.138408e+002,
3867187500, 1.209588e+002,
3868750000, 1.215762e+002,
3870312500, 1.192784e+002,
3871875000, 1.095456e+002,
3873437500, 9.958723e+001,
3875000000, 1.023141e+002,
3876562500, 1.182686e+002,
3878125000, 1.137581e+002,
3879687500, 1.029641e+002,
3881250000, 9.565086e+001,
3882812500, 9.213403e+001,
3884375000, 9.135638e+001,
3885937500, 9.028725e+001,
3887500000, 9.915108e+001,
3889062500, 1.037123e+002,
3890625000, 9.532597e+001,
3892187500, 7.884184e+001,
3893750000, 7.444686e+001,
3895312500, 8.996192e+001,
3896875000, 8.508938e+001,
3898437500, 7.325379e+001,
3900000000, 7.361540e+001,
3901562500, 7.958940e+001,
3903125000, 7.347216e+001,
3904687500, 7.943856e+001,
3906250000, 8.244088e+001,
3907812500, 7.365934e+001,
3909375000, 6.130466e+001,
3910937500, 5.312695e+001,
3912500000, 6.374683e+001,
3914062500, 8.039081e+001,
3915625000, 6.688214e+001,
3917187500, 5.799828e+001,
3918750000, 6.129560e+001,
3920312500, 5.615482e+001,
3921875000, 4.280822e+001,
3923437500, 4.095076e+001,
3925000000, 4.510018e+001,
3926562500, 6.207544e+001,
3928125000, 5.920532e+001,
3929687500, 4.051698e+001,
3931250000, 3.220502e+001,
3932812500, 3.430164e+001,
3934375000, 3.693598e+001,
3935937500, 3.183942e+001,
3937500000, 4.099415e+001,
3939062500, 3.333684e+001,
3940625000, 1.586281e+001,
3942187500, 1.607459e+001,
3943750000, 4.449722e+001,
3945312500, 4.062471e+001,
3946875000, 2.770742e+001,
3948437500, 1.017824e+001,
3950000000, 7.204926e+000,
3951562500, 2.665099e+001,
3953125000, 1.754084e+001,
3954687500, 4.709773e+000,
3956250000, 1.128518e+001,
3957812500, 2.025024e+001,
3959375000, 5.267416e+000,
3960937500, -4.377762e+000,
3962500000, -5.186691e+000,
3964062500, -1.501577e+001,
3965625000, 4.640755e+000,
3967187500, 8.980580e+000,
3968750000, -1.230752e-001,
3970312500, -1.150970e+001,
3971875000, -3.983672e+001,
3973437500, -4.325360e+001,
3975000000, -1.527562e+000,
3976562500, 1.723892e+001,
3978125000, 2.601685e+000,
3979687500, -3.191996e+001,
3981250000, -6.021193e+001,
3982812500, -4.831394e+001,
3984375000, -3.078917e+001,
3985937500, -1.219878e+000,
3987500000, -1.843627e+001,
3989062500, -3.529174e+001,
3990625000, -2.814915e+001,
3992187500, -2.946921e+001,
3993750000, -4.787905e+001,
3995312500, -5.541172e+001,
3996875000, -5.538658e+001,
3998437500, -2.987041e+001,
4000000000, -5.965829e+001,
4001562500, -4.865262e+001,
4003125000, -4.253296e+001,
4004687500, -6.034349e+001,
4006250000, -5.998768e+001,
4007812500, -5.568249e+001,
4009375000, -5.561933e+001,
4010937500, -4.393336e+001,
4012500000, -7.683336e+001,
4014062500, -9.599970e+001,
4015625000, -1.237317e+002,
4017187500, -3.007836e+001,
4018750000, -1.552592e+001,
4020312500, -5.835640e+001,
4021875000, -8.420220e+001,
4023437500, -9.579329e+001,
4025000000, -1.108111e+002,
4026562500, -1.150206e+002,
4028125000, -7.385759e+001,
4029687500, -5.988762e+001,
4031250000, -6.986280e+001,
4032812500, -6.605901e+001,
4034375000, -9.061727e+001,
4035937500, -1.041968e+002,
4037500000, -1.170866e+002,
4039062500, -9.832468e+001,
4040625000, -9.800611e+001,
4042187500, -1.221984e+002,
4043750000, -8.013263e+001,
4045312500, -8.745708e+001,
4046875000, -1.141186e+002,
4048437500, -1.241128e+002,
4050000000, -1.348462e+002,
4051562500, -1.471643e+002,
4053125000, -6.965686e+001,
4054687500, -7.666265e+001,
4056250000, -1.153720e+002,
4057812500, -1.366516e+002,
4059375000, -1.595722e+002,
4060937500, 1.760079e+002,
4062500000, -1.006173e+002,
4064062500, -1.426392e+002,
4065625000, -1.191485e+002,
4067187500, -1.222979e+002,
4068750000, -1.481707e+002,
4070312500, -1.632482e+002,
4071875000, -1.690507e+002,
4073437500, -1.511841e+002,
4075000000, -8.320269e+001,
4076562500, -9.422676e+001,
4078125000, -1.323021e+002,
4079687500, -1.569198e+002,
4081250000, 1.724614e+002,
4082812500, 1.264105e+002,
4084375000, -1.451056e+002,
4085937500, -1.632973e+002,
4087500000, -8.474694e+001,
4089062500, -1.171990e+002,
4090625000, -1.409191e+002,
4092187500, -1.643788e+002,
4093750000, 1.761473e+002,
4095312500, 1.516854e+002,
4096875000, 1.118243e+002,
4098437500, 2.071278e+001,
4100000000, -9.395175e+001,
4101562500, -1.420478e+002,
4103125000, -1.666070e+002,
4104687500, 1.726958e+002,
4106250000, -1.486780e+002,
4107812500, -1.731397e+002,
4109375000, 1.418732e+002,
4110937500, 1.344367e+002,
4112500000, 1.526406e+002,
4114062500, 1.708094e+002,
4115625000, 1.680872e+002,
4117187500, 1.750166e+002,
4118750000, 1.509359e+002,
4120312500, 1.252708e+002,
4121875000, -1.741094e+002,
4123437500, -1.536853e+002,
4125000000, -1.617796e+002,
4126562500, 1.665984e+002,
4128125000, 1.234324e+002,
4129687500, 1.041141e+002,
4131250000, 7.397992e+001,
4132812500, 8.486066e+000,
