"S21 Phase"
"Frequency (Hz)","Deg",
3000000000, 1.558874e+002,
3001562500, 1.539739e+002,
3003125000, 1.519488e+002,
3004687500, 1.506040e+002,
3006250000, 1.481474e+002,
3007812500, 1.469064e+002,
3009375000, 1.447307e+002,
3010937500, 1.432428e+002,
3012500000, 1.411793e+002,
3014062500, 1.393629e+002,
3015625000, 1.371671e+002,
3017187500, 1.356890e+002,
3018750000, 1.337679e+002,
3020312500, 1.319319e+002,
3021875000, 1.300550e+002,
3023437500, 1.280698e+002,
3025000000, 1.260609e+002,
3026562500, 1.243154e+002,
3028125000, 1.224248e+002,
3029687500, 1.202120e+002,
3031250000, 1.182038e+002,
3032812500, 1.166557e+002,
3034375000, 1.146443e+002,
3035937500, 1.125612e+002,
3037500000, 1.102808e+002,
3039062500, 1.086246e+002,
3040625000, 1.064358e+002,
3042187500, 1.042112e+002,
3043750000, 1.021657e+002,
3045312500, 1.001018e+002,
3046875000, 9.791006e+001,
3048437500, 9.552209e+001,
3050000000, 9.324700e+001,
3051562500, 9.129494e+001,
3053125000, 8.899247e+001,
3054687500, 8.672507e+001,
3056250000, 8.484111e+001,
3057812500, 8.243413e+001,
3059375000, 8.019420e+001,
3060937500, 7.797650e+001,
3062500000, 7.582408e+001,
3064062500, 7.349642e+001,
3065625000, 7.174043e+001,
3067187500, 6.904879e+001,
3068750000, 6.699890e+001,
3070312500, 6.464019e+001,
3071875000, 6.278894e+001,
3073437500, 6.044244e+001,
3075000000, 5.797549e+001,
3076562500, 5.637007e+001,
3078125000, 5.362846e+001,
3079687500, 5.147867e+001,
3081250000, 4.945108e+001,
3082812500, 4.705737e+001,
3084375000, 4.485645e+001,
3085937500, 4.261573e+001,
3087500000, 4.083386e+001,
3089062500, 3.846818e+001,
3090625000, 3.617492e+001,
3092187500, 3.380793e+001,
3093750000, 3.203128e+001,
3095312500, 3.005536e+001,
3096875000, 2.781514e+001,
3098437500, 2.541429e+001,
3100000000, 2.376613e+001,
3101562500, 2.114204e+001,
3103125000, 1.909676e+001,
3104687500, 1.679561e+001,
3106250000, 1.530607e+001,
3107812500, 1.254220e+001,
3109375000, 1.051825e+001,
3110937500, 8.355151e+000,
3112500000, 6.248407e+000,
3114062500, 4.070311e+000,
3115625000, 2.460283e+000,
3117187500, -8.260988e-002,
3118750000, -2.213378e+000,
3120312500, -4.367506e+000,
3121875000, -6.370225e+000,
3123437500, -8.607240e+000,
3125000000, -1.054017e+001,
3126562500, -1.308470e+001,
3128125000, -1.506112e+001,
3129687500, -1.717754e+001,
3131250000, -1.924659e+001,
3132812500, -2.123104e+001,
3134375000, -2.354078e+001,
3135937500, -2.582396e+001,
3137500000, -2.755468e+001,
3139062500, -3.003582e+001,
3140625000, -3.238285e+001,
3142187500, -3.455969e+001,
3143750000, -3.651303e+001,
3145312500, -3.949868e+001,
3146875000, -4.088264e+001,
3148437500, -4.355104e+001,
3150000000, -4.553373e+001,
3151562500, -4.754663e+001,
3153125000, -4.980615e+001,
3154687500, -5.208920e+001,
3156250000, -5.430602e+001,
3157812500, -5.712391e+001,
3159375000, -5.911225e+001,
3160937500, -6.113713e+001,
3162500000, -6.380940e+001,
3164062500, -6.568371e+001,
3165625000, -6.821537e+001,
3167187500, -6.976076e+001,
3168750000, -7.275674e+001,
3170312500, -7.430617e+001,
3171875000, -7.714576e+001,
3173437500, -7.918770e+001,
3175000000, -8.100488e+001,
3176562500, -8.388532e+001,
3178125000, -8.566593e+001,
3179687500, -8.811788e+001,
3181250000, -8.992056e+001,
3182812500, -9.273254e+001,
3184375000, -9.417373e+001,
3185937500, -9.652482e+001,
3187500000, -9.924530e+001,
3189062500, -1.008464e+002,
3190625000, -1.033108e+002,
3192187500, -1.054168e+002,
3193750000, -1.077777e+002,
3195312500, -1.094085e+002,
3196875000, -1.114808e+002,
3198437500, -1.144992e+002,
3200000000, -1.157910e+002,
3201562500, -1.181394e+002,
3203125000, -1.203958e+002,
3204687500, -1.226762e+002,
3206250000, -1.241600e+002,
3207812500, -1.265307e+002,
3209375000, -1.293406e+002,
3210937500, -1.302535e+002,
3212500000, -1.328275e+002,
3214062500, -1.346227e+002,
3215625000, -1.374361e+002,
3217187500, -1.389923e+002,
3218750000, -1.402636e+002,
3220312500, -1.433595e+002,
3221875000, -1.447778e+002,
3223437500, -1.466955e+002,
3225000000, -1.488163e+002,
3226562500, -1.505925e+002,
3228125000, -1.524807e+002,
3229687500, -1.543089e+002,
3231250000, -1.564432e+002,
3232812500, -1.589679e+002,
3234375000, -1.598537e+002,
3235937500, -1.623324e+002,
3237500000, -1.642182e+002,
3239062500, -1.658238e+002,
3240625000, -1.678609e+002,
3242187500, -1.690478e+002,
3243750000, -1.709955e+002,
3245312500, -1.731107e+002,
3246875000, -1.740794e+002,
3248437500, -1.758380e+002,
3250000000, -1.780850e+002,
3251562500, -1.797421e+002,
3253125000, 1.781703e+002,
3254687500, 1.767156e+002,
3256250000, 1.745070e+002,
3257812500, 1.730765e+002,
3259375000, 1.714916e+002,
3260937500, 1.698833e+002,
3262500000, 1.678374e+002,
3264062500, 1.666079e+002,
3265625000, 1.643515e+002,
3267187500, 1.626846e+002,
3268750000, 1.608339e+002,
3270312500, 1.594553e+002,
3271875000, 1.574040e+002,
3273437500, 1.560945e+002,
3275000000, 1.537611e+002,
3276562500, 1.524233e+002,
3278125000, 1.508406e+002,
3279687500, 1.484629e+002,
3281250000, 1.473392e+002,
3282812500, 1.459624e+002,
3284375000, 1.438357e+002,
3285937500, 1.417275e+002,
3287500000, 1.402889e+002,
3289062500, 1.381958e+002,
3290625000, 1.374655e+002,
3292187500, 1.342929e+002,
3293750000, 1.321314e+002,
3295312500, 1.317049e+002,
3296875000, 1.295836e+002,
3298437500, 1.269031e+002,
3300000000, 1.251134e+002,
3301562500, 1.234765e+002,
3303125000, 1.215461e+002,
3304687500, 1.195193e+002,
3306250000, 1.174369e+002,
3307812500, 1.150009e+002,
3309375000, 1.132566e+002,
3310937500, 1.119032e+002,
3312500000, 1.095193e+002,
3314062500, 1.069155e+002,
3315625000, 1.053474e+002,
3317187500, 1.030251e+002,
3318750000, 1.015382e+002,
3320312500, 9.928256e+001,
3321875000, 9.708197e+001,
3323437500, 9.497713e+001,
3325000000, 9.280521e+001,
3326562500, 9.143039e+001,
3328125000, 8.847742e+001,
3329687500, 8.703379e+001,
3331250000, 8.443130e+001,
3332812500, 8.245036e+001,
3334375000, 8.080998e+001,
3335937500, 7.768889e+001,
3337500000, 7.598521e+001,
3339062500, 7.335888e+001,
3340625000, 7.143269e+001,
3342187500, 6.979071e+001,
3343750000, 6.656997e+001,
3345312500, 6.510326e+001,
3346875000, 6.179654e+001,
3348437500, 5.946189e+001,
3350000000, 5.843764e+001,
3351562500, 5.425586e+001,
3353125000, 5.297354e+001,
3354687500, 5.056549e+001,
3356250000, 4.832813e+001,
3357812500, 4.695906e+001,
3359375000, 4.366396e+001,
3360937500, 4.248185e+001,
3362500000, 3.966716e+001,
3364062500, 3.729855e+001,
3365625000, 3.596877e+001,
3367187500, 3.294779e+001,
3368750000, 3.110193e+001,
3370312500, 2.887120e+001,
3371875000, 2.639945e+001,
3373437500, 2.547994e+001,
3375000000, 2.219472e+001,
3376562500, 2.029080e+001,
3378125000, 1.841688e+001,
3379687500, 1.520025e+001,
3381250000, 1.357935e+001,
3382812500, 1.104220e+001,
3384375000, 8.973083e+000,
3385937500, 6.968998e+000,
3387500000, 4.489725e+000,
3389062500, 2.288118e+000,
3390625000, 1.548280e+000,
3392187500, -2.597569e+000,
3393750000, -2.959690e+000,
3395312500, -5.433841e+000,
3396875000, -8.582444e+000,
3398437500, -9.150697e+000,
3400000000, -1.140801e+001,
3401562500, -1.408326e+001,
3403125000, -1.560945e+001,
3404687500, -1.763327e+001,
3406250000, -1.959755e+001,
3407812500, -2.173170e+001,
3409375000, -2.457461e+001,
3410937500, -2.490002e+001,
3412500000, -2.607980e+001,
3414062500, -3.097266e+001,
3415625000, -3.154501e+001,
3417187500, -3.275118e+001,
3418750000, -3.564304e+001,
3420312500, -3.684453e+001,
3421875000, -3.916795e+001,
3423437500, -4.037565e+001,
3425000000, -4.189121e+001,
3426562500, -4.402174e+001,
3428125000, -4.721179e+001,
3429687500, -4.641887e+001,
3431250000, -4.928232e+001,
3432812500, -5.289556e+001,
3434375000, -5.337079e+001,
3435937500, -5.553114e+001,
3437500000, -5.719987e+001,
3439062500, -5.934648e+001,
3440625000, -6.198662e+001,
3442187500, -6.341023e+001,
3443750000, -6.384672e+001,
3445312500, -6.714918e+001,
3446875000, -6.993237e+001,
3448437500, -6.947944e+001,
3450000000, -7.195993e+001,
3451562500, -7.621463e+001,
3453125000, -7.662379e+001,
3454687500, -7.920371e+001,
3456250000, -8.162404e+001,
3457812500, -8.203968e+001,
3459375000, -8.599102e+001,
3460937500, -8.784307e+001,
3462500000, -8.810188e+001,
3464062500, -9.101718e+001,
3465625000, -9.361581e+001,
3467187500, -9.491183e+001,
3468750000, -9.639503e+001,
3470312500, -9.990505e+001,
3471875000, -1.018644e+002,
3473437500, -1.027143e+002,
3475000000, -1.065869e+002,
3476562500, -1.081992e+002,
3478125000, -1.093213e+002,
3479687500, -1.133775e+002,
3481250000, -1.136403e+002,
3482812500, -1.157591e+002,
3484375000, -1.190571e+002,
3485937500, -1.207110e+002,
3487500000, -1.220230e+002,
3489062500, -1.238239e+002,
3490625000, -1.275723e+002,
3492187500, -1.291927e+002,
3493750000, -1.305558e+002,
3495312500, -1.341495e+002,
3496875000, -1.358952e+002,
3498437500, -1.368333e+002,
3500000000, -1.416801e+002,
3501562500, -1.421534e+002,
3503125000, -1.431432e+002,
3504687500, -1.463832e+002,
3506250000, -1.490482e+002,
3507812500, -1.508791e+002,
3509375000, -1.524687e+002,
3510937500, -1.543233e+002,
3512500000, -1.568658e+002,
3514062500, -1.592802e+002,
3515625000, -1.622771e+002,
3517187500, -1.631608e+002,
3518750000, -1.646897e+002,
3520312500, -1.687173e+002,
3521875000, -1.718413e+002,
3523437500, -1.718357e+002,
3525000000, -1.736248e+002,
3526562500, -1.767929e+002,
3528125000, -1.787568e+002,
3529687500, 1.786643e+002,
3531250000, 1.758738e+002,
3532812500, 1.765563e+002,
3534375000, 1.747549e+002,
3535937500, 1.697551e+002,
3537500000, 1.661644e+002,
3539062500, 1.671242e+002,
3540625000, 1.657322e+002,
3542187500, 1.618185e+002,
3543750000, 1.577308e+002,
3545312500, 1.580381e+002,
3546875000, 1.571134e+002,
3548437500, 1.530064e+002,
3550000000, 1.514253e+002,
3551562500, 1.507113e+002,
3553125000, 1.458260e+002,
3554687500, 1.450554e+002,
3556250000, 1.457775e+002,
3557812500, 1.420209e+002,
3559375000, 1.386354e+002,
3560937500, 1.361559e+002,
3562500000, 1.363842e+002,
3564062500, 1.340288e+002,
3565625000, 1.327801e+002,
3567187500, 1.291755e+002,
3568750000, 1.277041e+002,
3570312500, 1.258206e+002,
3571875000, 1.235514e+002,
3573437500, 1.246696e+002,
3575000000, 1.200231e+002,
3576562500, 1.153590e+002,
3578125000, 1.174621e+002,
3579687500, 1.177576e+002,
3581250000, 1.129629e+002,
3582812500, 1.096752e+002,
3584375000, 1.080899e+002,
3585937500, 1.094200e+002,
3587500000, 1.040249e+002,
3589062500, 1.044444e+002,
3590625000, 1.031065e+002,
3592187500, 1.003800e+002,
3593750000, 9.596455e+001,
3595312500, 9.645906e+001,
3596875000, 9.813071e+001,
3598437500, 9.483555e+001,
3600000000, 8.755261e+001,
3601562500, 8.697810e+001,
3603125000, 9.047933e+001,
3604687500, 8.913090e+001,
3606250000, 8.478567e+001,
3607812500, 7.803990e+001,
3609375000, 7.827274e+001,
3610937500, 7.938048e+001,
3612500000, 7.470864e+001,
3614062500, 7.525545e+001,
3615625000, 7.239605e+001,
3617187500, 6.706833e+001,
3618750000, 6.456836e+001,
3620312500, 6.724685e+001,
3621875000, 6.833558e+001,
3623437500, 6.319975e+001,
3625000000, 5.481779e+001,
3626562500, 5.488980e+001,
3628125000, 5.967409e+001,
3629687500, 5.437500e+001,
3631250000, 5.270521e+001,
3632812500, 5.070176e+001,
3634375000, 4.678545e+001,
3635937500, 4.242339e+001,
3637500000, 4.037386e+001,
3639062500, 4.378191e+001,
3640625000, 4.440508e+001,
3642187500, 3.712075e+001,
3643750000, 3.029611e+001,
3645312500, 2.907405e+001,
3646875000, 3.456212e+001,
3648437500, 3.711074e+001,
3650000000, 2.708291e+001,
3651562500, 2.002295e+001,
3653125000, 2.218318e+001,
3654687500, 2.355592e+001,
3656250000, 1.820524e+001,
3657812500, 2.027081e+001,
3659375000, 1.899262e+001,
3660937500, 1.253352e+001,
3662500000, 6.523982e+000,
3664062500, 4.651654e+000,
3665625000, 5.612070e+000,
3667187500, 1.282466e+001,
3668750000, 5.899092e+000,
3670312500, -4.092556e+000,
3671875000, -8.769808e+000,
3673437500, -4.307481e+000,
3675000000, 1.520754e+000,
3676562500, -3.524626e+000,
3678125000, -1.163001e+001,
3679687500, -1.402869e+001,
3681250000, -1.558763e+001,
3682812500, -2.033187e+001,
3684375000, -1.341720e+001,
3685937500, -1.458475e+001,
3687500000, -1.930299e+001,
3689062500, -2.969464e+001,
3690625000, -3.089349e+001,
3692187500, -3.410592e+001,
3693750000, -2.409332e+001,
3695312500, -2.580111e+001,
3696875000, -3.455114e+001,
3698437500, -4.237230e+001,
3700000000, -4.473563e+001,
3701562500, -3.876671e+001,
3703125000, -3.482416e+001,
3704687500, -4.011048e+001,
3706250000, -4.549734e+001,
3707812500, -4.971883e+001,
3709375000, -5.386309e+001,
3710937500, -5.533237e+001,
3712500000, -5.138834e+001,
3714062500, -4.514090e+001,
3715625000, -5.278024e+001,
3717187500, -6.882695e+001,
3718750000, -6.671183e+001,
3720312500, -6.730729e+001,
3721875000, -6.055482e+001,
3723437500, -5.716933e+001,
3725000000, -6.560029e+001,
3726562500, -7.200134e+001,
3728125000, -7.974699e+001,
3729687500, -8.186933e+001,
3731250000, -7.210661e+001,
3732812500, -6.597134e+001,
3734375000, -7.042831e+001,
3735937500, -7.600046e+001,
3737500000, -8.834565e+001,
3739062500, -1.007872e+002,
3740625000, -9.109660e+001,
3742187500, -7.215142e+001,
3743750000, -7.614386e+001,
3745312500, -8.819054e+001,
3746875000, -1.055314e+002,
3748437500, -1.023475e+002,
3750000000, -1.051465e+002,
3751562500, -9.359163e+001,
3753125000, -8.983740e+001,
3754687500, -9.443258e+001,
3756250000, -1.036302e+002,
3757812500, -1.120171e+002,
3759375000, -1.155917e+002,
3760937500, -1.163950e+002,
3762500000, -1.153790e+002,
3764062500, -9.327965e+001,
3765625000, -9.897301e+001,
3767187500, -1.130985e+002,
3768750000, -1.330777e+002,
3770312500, -1.448843e+002,
3771875000, -1.264455e+002,
3773437500, -1.102547e+002,
3775000000, -1.110166e+002,
3776562500, -1.260916e+002,
3778125000, -1.371703e+002,
3779687500, -1.466587e+002,
3781250000, -1.560602e+002,
3782812500, -1.349821e+002,
3784375000, -1.224891e+002,
3785937500, -1.309635e+002,
3787500000, -1.413789e+002,
3789062500, -1.521787e+002,
3790625000, -1.601809e+002,
3792187500, -1.638124e+002,
3793750000, -1.551493e+002,
3795312500, -1.421507e+002,
3796875000, -1.405382e+002,
3798437500, -1.565501e+002,
3800000000, -1.643498e+002,
3801562500, 1.786584e+002,
3803125000, -1.762300e+002,
3804687500, -1.704411e+002,
3806250000, -1.640574e+002,
3807812500, -1.695483e+002,
3809375000, -1.667654e+002,
3810937500, -1.776637e+002,
3812500000, 1.658862e+002,
3814062500, 1.601607e+002,
3815625000, 1.675133e+002,
3817187500, -1.720943e+002,
3818750000, -1.738278e+002,
3820312500, 1.748933e+002,
3821875000, 1.609237e+002,
3823437500, 1.439859e+002,
3825000000, 1.392851e+002,
3826562500, 1.749878e+002,
3828125000, 1.753002e+002,
3829687500, 1.638334e+002,
3831250000, 1.534407e+002,
3832812500, 1.458340e+002,
3834375000, 1.420577e+002,
3835937500, 1.402624e+002,
3837500000, 1.396032e+002,
3839062500, 1.507720e+002,
3840625000, 1.507829e+002,
3842187500, 1.424457e+002,
3843750000, 1.425146e+002,
3845312500, 1.249758e+002,
3846875000, 1.211600e+002,
3848437500, 1.190390e+002,
3850000000, 1.350674e+002,
3851562500, 1.451855e+002,
3853125000, 1.492827e+002,
3854687500, 1.324315e+002,
3856250000, 1.065491e+002,
3857812500, 8.158981e+001,
3859375000, 1.117708e+002,
3860937500, 1.406256e+002,
3862500000, 1.322845e+002,
3864062500, 1.245192e+002,
3865625000, 1.140304e+002,
3867187500, 1.043955e+002,
3868750000, 1.001270e+002,
3870312500, 8.471301e+001,
3871875000, 8.051275e+001,
3873437500, 1.084309e+002,
3875000000, 1.340275e+002,
3876562500, 1.109691e+002,
3878125000, 1.035904e+002,
3879687500, 8.878081e+001,
3881250000, 7.134038e+001,
3882812500, 6.272390e+001,
3884375000, 7.050057e+001,
3885937500, 1.133194e+002,
3887500000, 1.191214e+002,
3889062500, 1.153886e+002,
3890625000, 9.058009e+001,
3892187500, 6.662906e+001,
3893750000, 4.211890e+001,
3895312500, 3.795600e+001,
3896875000, 8.338162e+001,
3898437500, 9.956989e+001,
3900000000, 1.074686e+002,
3901562500, 9.322290e+001,
3903125000, 7.288817e+001,
3904687500, 5.933912e+001,
3906250000, 3.805756e+001,
3907812500, 1.094838e+001,
3909375000, 4.544721e+001,
3910937500, 1.037787e+002,
3912500000, 9.881238e+001,
3914062500, 9.342643e+001,
3915625000, 6.774579e+001,
3917187500, 4.416457e+001,
3918750000, 2.058108e+001,
3920312500, -2.224430e+000,
3921875000, 2.954748e+001,
3923437500, 8.529165e+001,
3925000000, 9.520390e+001,
3926562500, 7.223080e+001,
3928125000, 5.115772e+001,
3929687500, 3.885934e+001,
3931250000, 1.605896e+001,
3932812500, 9.254905e+000,
3934375000, -3.776193e+000,
3935937500, 1.635625e+001,
3937500000, 8.437458e+001,
3939062500, 6.318805e+001,
3940625000, 3.848449e+001,
3942187500, 1.461030e+001,
3943750000, 7.509083e+000,
3945312500, -4.891492e+000,
3946875000, -2.450128e+001,
3948437500, -2.722881e+000,
3950000000, 8.331509e+001,
3951562500, 8.503426e+001,
3953125000, 4.088092e+001,
3954687500, 8.879388e+000,
3956250000, -2.151056e+001,
3957812500, -5.217896e+001,
3959375000, -3.699321e+001,
3960937500, 3.861251e+001,
3962500000, 3.908881e+001,
3964062500, 6.960630e+000,
3965625000, 1.179370e+001,
3967187500, 1.900636e+001,
3968750000, -3.599717e+000,
3970312500, -2.603159e+001,
3971875000, -3.147155e+001,
3973437500, -4.581257e+001,
3975000000, -2.557956e+001,
3976562500, 4.670986e+001,
3978125000, 1.762409e+001,
3979687500, -1.836113e+001,
3981250000, -5.501262e+001,
3982812500, -8.170735e+001,
3984375000, -5.022228e+001,
3985937500, -3.913207e+001,
3987500000, 1.146779e+001,
3989062500, 8.678443e+000,
3990625000, -1.786322e+001,
3992187500, -1.150083e+001,
3993750000, -2.894868e+001,
3995312500, -4.218220e+001,
3996875000, -7.801724e+001,
3998437500, -1.097744e+002,
4000000000, -1.011992e+002,
4001562500, 4.520360e+001,
4003125000, 5.493676e+000,
4004687500, -2.565577e+001,
4006250000, -3.634177e+001,
4007812500, -5.798465e+001,
4009375000, -7.480788e+001,
4010937500, -8.127102e+001,
4012500000, -1.353789e+002,
4014062500, 4.203688e+000,
4015625000, -1.191812e+001,
4017187500, -3.074066e+001,
4018750000, -4.945786e+001,
4020312500, -5.732848e+001,
4021875000, -7.886707e+001,
4023437500, -1.149273e+002,
4025000000, -1.313577e+002,
4026562500, -1.511853e+002,
4028125000, 1.451394e+002,
4029687500, 1.206036e+001,
4031250000, -2.581591e+001,
4032812500, -4.046023e+001,
4034375000, -7.729818e+001,
4035937500, -1.059206e+002,
4037500000, -1.303982e+002,
4039062500, -1.446424e+002,
4040625000, -1.443733e+002,
4042187500, 1.434149e+002,
4043750000, 2.444752e+001,
4045312500, -3.876874e+001,
4046875000, -7.435105e+001,
4048437500, -9.092245e+001,
4050000000, -1.210911e+002,
4051562500, -1.424129e+002,
4053125000, -1.544025e+002,
4054687500, 1.656092e+002,
4056250000, -5.979394e+001,
4057812500, -1.038586e+002,
4059375000, -8.793172e+001,
4060937500, -8.708342e+001,
4062500000, -1.109923e+002,
4064062500, -1.184464e+002,
4065625000, -1.305039e+002,
4067187500, -1.624758e+002,
4068750000, 1.572061e+002,
4070312500, 1.348373e+002,
4071875000, -8.291400e+001,
4073437500, -1.088281e+002,
4075000000, -8.868439e+001,
4076562500, -9.242926e+001,
4078125000, -1.246135e+002,
4079687500, -1.609355e+002,
4081250000, 1.636181e+002,
4082812500, -1.731681e+002,
4084375000, 1.475461e+002,
4085937500, 9.311319e+001,
4087500000, -7.166662e+000,
4089062500, -7.458199e+001,
4090625000, -1.124874e+002,
4092187500, -1.376096e+002,
4093750000, -1.676589e+002,
4095312500, 1.645724e+002,
4096875000, 1.452974e+002,
4098437500, 9.825297e+001,
4100000000, 1.551771e+001,
4101562500, -7.837634e+001,
4103125000, -1.380329e+002,
4104687500, -1.686638e+002,
4106250000, 1.541344e+002,
4107812500, -1.128323e+002,
4109375000, -1.708239e+002,
4110937500, 1.524609e+002,
4112500000, 1.267186e+002,
4114062500, 1.025699e+002,
4115625000, 1.858775e+001,
4117187500, -1.007009e+002,
4118750000, -1.760976e+002,
4120312500, -1.762233e+002,
4121875000, -1.357877e+002,
4123437500, -1.655221e+002,
4125000000, 1.437538e+002,
4126562500, 1.106574e+002,
4128125000, 1.384304e+002,
4129687500, 9.508879e+001,
4131250000, 2.739404e+001,
4132812500, -4.894435e+001,
