"S12 Phase"
"Frequency (Hz)","Deg",
3000000000, 1.601515e+002,
3001562500, 1.582049e+002,
3003125000, 1.566614e+002,
3004687500, 1.548688e+002,
3006250000, 1.530038e+002,
3007812500, 1.511993e+002,
3009375000, 1.495677e+002,
3010937500, 1.473356e+002,
3012500000, 1.456578e+002,
3014062500, 1.437959e+002,
3015625000, 1.417152e+002,
3017187500, 1.401835e+002,
3018750000, 1.379778e+002,
3020312500, 1.360022e+002,
3021875000, 1.341926e+002,
3023437500, 1.321684e+002,
3025000000, 1.301456e+002,
3026562500, 1.284394e+002,
3028125000, 1.262198e+002,
3029687500, 1.241237e+002,
3031250000, 1.224022e+002,
3032812500, 1.203797e+002,
3034375000, 1.183056e+002,
3035937500, 1.162554e+002,
3037500000, 1.141994e+002,
3039062500, 1.117440e+002,
3040625000, 1.099594e+002,
3042187500, 1.075664e+002,
3043750000, 1.056028e+002,
3045312500, 1.033170e+002,
3046875000, 1.012419e+002,
3048437500, 9.915107e+001,
3050000000, 9.703511e+001,
3051562500, 9.471546e+001,
3053125000, 9.251572e+001,
3054687500, 9.034614e+001,
3056250000, 8.815076e+001,
3057812500, 8.592887e+001,
3059375000, 8.378997e+001,
3060937500, 8.180507e+001,
3062500000, 7.940535e+001,
3064062500, 7.717323e+001,
3065625000, 7.486605e+001,
3067187500, 7.290144e+001,
3068750000, 7.082733e+001,
3070312500, 6.868760e+001,
3071875000, 6.624142e+001,
3073437500, 6.416798e+001,
3075000000, 6.221857e+001,
3076562500, 5.975642e+001,
3078125000, 5.743720e+001,
3079687500, 5.536240e+001,
3081250000, 5.310508e+001,
3082812500, 5.109531e+001,
3084375000, 4.868187e+001,
3085937500, 4.676193e+001,
3087500000, 4.470313e+001,
3089062500, 4.259832e+001,
3090625000, 4.063384e+001,
3092187500, 3.857878e+001,
3093750000, 3.635616e+001,
3095312500, 3.440317e+001,
3096875000, 3.240167e+001,
3098437500, 3.045631e+001,
3100000000, 2.819189e+001,
3101562500, 2.622895e+001,
3103125000, 2.399631e+001,
3104687500, 2.201689e+001,
3106250000, 1.987143e+001,
3107812500, 1.772461e+001,
3109375000, 1.547900e+001,
3110937500, 1.345925e+001,
3112500000, 1.160209e+001,
3114062500, 9.238389e+000,
3115625000, 7.327811e+000,
3117187500, 5.094878e+000,
3118750000, 2.829358e+000,
3120312500, 6.316426e-001,
3121875000, -1.056241e+000,
3123437500, -3.315681e+000,
3125000000, -5.229510e+000,
3126562500, -7.433777e+000,
3128125000, -9.227747e+000,
3129687500, -1.146192e+001,
3131250000, -1.363890e+001,
3132812500, -1.571199e+001,
3134375000, -1.798213e+001,
3135937500, -1.980056e+001,
3137500000, -2.237461e+001,
3139062500, -2.415771e+001,
3140625000, -2.635539e+001,
3142187500, -2.860356e+001,
3143750000, -3.058788e+001,
3145312500, -3.311538e+001,
3146875000, -3.516403e+001,
3148437500, -3.695156e+001,
3150000000, -3.915774e+001,
3151562500, -4.172884e+001,
3153125000, -4.385234e+001,
3154687500, -4.564813e+001,
3156250000, -4.776776e+001,
3157812500, -5.034352e+001,
3159375000, -5.243479e+001,
3160937500, -5.458970e+001,
3162500000, -5.676490e+001,
3164062500, -5.893856e+001,
3165625000, -6.092116e+001,
3167187500, -6.348125e+001,
3168750000, -6.551412e+001,
3170312500, -6.772877e+001,
3171875000, -7.023705e+001,
3173437500, -7.228976e+001,
3175000000, -7.439909e+001,
3176562500, -7.690294e+001,
3178125000, -7.902769e+001,
3179687500, -8.140996e+001,
3181250000, -8.351617e+001,
3182812500, -8.564975e+001,
3184375000, -8.793705e+001,
3185937500, -9.005837e+001,
3187500000, -9.230023e+001,
3189062500, -9.456773e+001,
3190625000, -9.674376e+001,
3192187500, -9.887510e+001,
3193750000, -1.010676e+002,
3195312500, -1.031484e+002,
3196875000, -1.052070e+002,
3198437500, -1.072743e+002,
3200000000, -1.093593e+002,
3201562500, -1.114220e+002,
3203125000, -1.136920e+002,
3204687500, -1.155550e+002,
3206250000, -1.175415e+002,
3207812500, -1.196367e+002,
3209375000, -1.217109e+002,
3210937500, -1.236713e+002,
3212500000, -1.257009e+002,
3214062500, -1.277441e+002,
3215625000, -1.294836e+002,
3217187500, -1.314958e+002,
3218750000, -1.333580e+002,
3220312500, -1.351815e+002,
3221875000, -1.369838e+002,
3223437500, -1.390673e+002,
3225000000, -1.407358e+002,
3226562500, -1.426236e+002,
3228125000, -1.445943e+002,
3229687500, -1.463042e+002,
3231250000, -1.485275e+002,
3232812500, -1.500090e+002,
3234375000, -1.517414e+002,
3235937500, -1.533385e+002,
3237500000, -1.554399e+002,
3239062500, -1.570218e+002,
3240625000, -1.587228e+002,
3242187500, -1.607410e+002,
3243750000, -1.618608e+002,
3245312500, -1.639293e+002,
3246875000, -1.658440e+002,
3248437500, -1.671345e+002,
3250000000, -1.686969e+002,
3251562500, -1.707839e+002,
3253125000, -1.723790e+002,
3254687500, -1.740864e+002,
3256250000, -1.758476e+002,
3257812500, -1.775207e+002,
3259375000, -1.791505e+002,
3260937500, 1.791012e+002,
3262500000, 1.778498e+002,
3264062500, 1.759689e+002,
3265625000, 1.740123e+002,
3267187500, 1.721213e+002,
3268750000, 1.706702e+002,
3270312500, 1.688450e+002,
3271875000, 1.673120e+002,
3273437500, 1.654120e+002,
3275000000, 1.639140e+002,
3276562500, 1.618894e+002,
3278125000, 1.601374e+002,
3279687500, 1.584427e+002,
3281250000, 1.564771e+002,
3282812500, 1.548103e+002,
3284375000, 1.530533e+002,
3285937500, 1.514460e+002,
3287500000, 1.496032e+002,
3289062500, 1.475472e+002,
3290625000, 1.463348e+002,
3292187500, 1.441649e+002,
3293750000, 1.424978e+002,
3295312500, 1.404588e+002,
3296875000, 1.388104e+002,
3298437500, 1.369097e+002,
3300000000, 1.349548e+002,
3301562500, 1.334225e+002,
3303125000, 1.312603e+002,
3304687500, 1.294037e+002,
3306250000, 1.270436e+002,
3307812500, 1.250656e+002,
3309375000, 1.229568e+002,
3310937500, 1.211228e+002,
3312500000, 1.188501e+002,
3314062500, 1.167894e+002,
3315625000, 1.151893e+002,
3317187500, 1.128571e+002,
3318750000, 1.106498e+002,
3320312500, 1.087192e+002,
3321875000, 1.068135e+002,
3323437500, 1.043251e+002,
3325000000, 1.026065e+002,
3326562500, 1.005328e+002,
3328125000, 9.822309e+001,
3329687500, 9.621271e+001,
3331250000, 9.421728e+001,
3332812500, 9.185526e+001,
3334375000, 8.969994e+001,
3335937500, 8.732149e+001,
3337500000, 8.532097e+001,
3339062500, 8.292843e+001,
3340625000, 8.086823e+001,
3342187500, 7.858208e+001,
3343750000, 7.622123e+001,
3345312500, 7.392286e+001,
3346875000, 7.178746e+001,
3348437500, 6.931120e+001,
3350000000, 6.692463e+001,
3351562500, 6.478482e+001,
3353125000, 6.245907e+001,
3354687500, 6.007903e+001,
3356250000, 5.760875e+001,
3357812500, 5.555099e+001,
3359375000, 5.322781e+001,
3360937500, 5.087999e+001,
3362500000, 4.865085e+001,
3364062500, 4.639131e+001,
3365625000, 4.402948e+001,
3367187500, 4.194257e+001,
3368750000, 3.969900e+001,
3370312500, 3.736590e+001,
3371875000, 3.522511e+001,
3373437500, 3.293656e+001,
3375000000, 3.056783e+001,
3376562500, 2.860831e+001,
3378125000, 2.631391e+001,
3379687500, 2.432558e+001,
3381250000, 2.190580e+001,
3382812500, 2.005288e+001,
3384375000, 1.802933e+001,
3385937500, 1.583016e+001,
3387500000, 1.354846e+001,
3389062500, 1.136863e+001,
3390625000, 9.551694e+000,
3392187500, 7.162139e+000,
3393750000, 5.396586e+000,
3395312500, 3.130894e+000,
3396875000, 8.258787e-001,
3398437500, -1.022316e+000,
3400000000, -3.061406e+000,
3401562500, -5.410142e+000,
3403125000, -7.376247e+000,
3404687500, -9.397049e+000,
3406250000, -1.149780e+001,
3407812500, -1.352607e+001,
3409375000, -1.537444e+001,
3410937500, -1.719847e+001,
3412500000, -1.950986e+001,
3414062500, -2.153445e+001,
3415625000, -2.363757e+001,
3417187500, -2.561201e+001,
3418750000, -2.729466e+001,
3420312500, -2.923155e+001,
3421875000, -3.092048e+001,
3423437500, -3.290371e+001,
3425000000, -3.466924e+001,
3426562500, -3.628657e+001,
3428125000, -3.821961e+001,
3429687500, -4.030954e+001,
3431250000, -4.194732e+001,
3432812500, -4.377344e+001,
3434375000, -4.602431e+001,
3435937500, -4.777536e+001,
3437500000, -4.973120e+001,
3439062500, -5.157135e+001,
3440625000, -5.331047e+001,
3442187500, -5.521665e+001,
3443750000, -5.724220e+001,
3445312500, -5.931620e+001,
3446875000, -6.117321e+001,
3448437500, -6.344859e+001,
3450000000, -6.485656e+001,
3451562500, -6.702416e+001,
3453125000, -6.925636e+001,
3454687500, -7.093157e+001,
3456250000, -7.321992e+001,
3457812500, -7.497641e+001,
3459375000, -7.741553e+001,
3460937500, -7.915112e+001,
3462500000, -8.141731e+001,
3464062500, -8.314450e+001,
3465625000, -8.512998e+001,
3467187500, -8.733137e+001,
3468750000, -8.922040e+001,
3470312500, -9.150324e+001,
3471875000, -9.364140e+001,
3473437500, -9.564843e+001,
3475000000, -9.813819e+001,
3476562500, -9.963254e+001,
3478125000, -1.019388e+002,
3479687500, -1.041043e+002,
3481250000, -1.062908e+002,
3482812500, -1.085499e+002,
3484375000, -1.101568e+002,
3485937500, -1.126870e+002,
3487500000, -1.146926e+002,
3489062500, -1.168685e+002,
3490625000, -1.192072e+002,
3492187500, -1.213459e+002,
3493750000, -1.236327e+002,
3495312500, -1.265061e+002,
3496875000, -1.279133e+002,
3498437500, -1.302762e+002,
3500000000, -1.324066e+002,
3501562500, -1.350872e+002,
3503125000, -1.370987e+002,
3504687500, -1.390526e+002,
3506250000, -1.416308e+002,
3507812500, -1.439680e+002,
3509375000, -1.460011e+002,
3510937500, -1.489514e+002,
3512500000, -1.509293e+002,
3514062500, -1.530110e+002,
3515625000, -1.553581e+002,
3517187500, -1.570826e+002,
3518750000, -1.596238e+002,
3520312500, -1.611828e+002,
3521875000, -1.640556e+002,
3523437500, -1.661500e+002,
3525000000, -1.672527e+002,
3526562500, -1.698421e+002,
3528125000, -1.722446e+002,
3529687500, -1.738583e+002,
3531250000, -1.764550e+002,
3532812500, -1.786092e+002,
3534375000, 1.798751e+002,
3535937500, 1.775867e+002,
3537500000, 1.756587e+002,
3539062500, 1.736363e+002,
3540625000, 1.719658e+002,
3542187500, 1.703470e+002,
3543750000, 1.677762e+002,
3545312500, 1.660222e+002,
3546875000, 1.649870e+002,
3548437500, 1.631208e+002,
3550000000, 1.609148e+002,
3551562500, 1.589470e+002,
3553125000, 1.567633e+002,
3554687500, 1.547719e+002,
3556250000, 1.537089e+002,
3557812500, 1.513440e+002,
3559375000, 1.496186e+002,
3560937500, 1.476351e+002,
3562500000, 1.453898e+002,
3564062500, 1.454068e+002,
3565625000, 1.424537e+002,
3567187500, 1.402444e+002,
3568750000, 1.394151e+002,
3570312500, 1.377601e+002,
3571875000, 1.355577e+002,
3573437500, 1.336102e+002,
3575000000, 1.315418e+002,
3576562500, 1.288853e+002,
3578125000, 1.286172e+002,
3579687500, 1.265453e+002,
3581250000, 1.246037e+002,
3582812500, 1.226203e+002,
3584375000, 1.200543e+002,
3585937500, 1.192364e+002,
3587500000, 1.186180e+002,
3589062500, 1.148351e+002,
3590625000, 1.130832e+002,
3592187500, 1.124874e+002,
3593750000, 1.102021e+002,
3595312500, 1.083176e+002,
3596875000, 1.065783e+002,
3598437500, 1.031248e+002,
3600000000, 1.009757e+002,
3601562500, 1.007491e+002,
3603125000, 9.831377e+001,
3604687500, 9.660738e+001,
3606250000, 9.425737e+001,
3607812500, 9.163561e+001,
3609375000, 8.954076e+001,
3610937500, 8.931843e+001,
3612500000, 8.667529e+001,
3614062500, 8.371724e+001,
3615625000, 8.180031e+001,
3617187500, 7.994387e+001,
3618750000, 7.816809e+001,
3620312500, 7.598958e+001,
3621875000, 7.311127e+001,
3623437500, 7.012367e+001,
3625000000, 6.878111e+001,
3626562500, 6.666765e+001,
3628125000, 6.514409e+001,
3629687500, 6.356709e+001,
3631250000, 6.076259e+001,
3632812500, 5.752195e+001,
3634375000, 5.534441e+001,
3635937500, 5.517252e+001,
3637500000, 5.281436e+001,
3639062500, 5.017796e+001,
3640625000, 4.780811e+001,
3642187500, 4.557034e+001,
3643750000, 4.400283e+001,
3645312500, 4.194972e+001,
3646875000, 3.916884e+001,
3648437500, 3.734250e+001,
3650000000, 3.587894e+001,
3651562500, 3.357645e+001,
3653125000, 3.113568e+001,
3654687500, 3.082410e+001,
3656250000, 2.924749e+001,
3657812500, 2.601830e+001,
3659375000, 2.272912e+001,
3660937500, 2.230707e+001,
3662500000, 2.114873e+001,
3664062500, 1.975059e+001,
3665625000, 1.668644e+001,
3667187500, 1.506002e+001,
3668750000, 1.264455e+001,
3670312500, 1.058586e+001,
3671875000, 8.889838e+000,
3673437500, 6.192871e+000,
3675000000, 5.878969e+000,
3676562500, 4.339876e+000,
3678125000, 2.955226e-001,
3679687500, -9.801217e-001,
3681250000, -1.549526e+000,
3682812500, -2.294657e+000,
3684375000, -5.663143e+000,
3685937500, -8.821282e+000,
3687500000, -1.078916e+001,
3689062500, -1.194197e+001,
3690625000, -1.362560e+001,
3692187500, -1.435914e+001,
3693750000, -1.785240e+001,
3695312500, -1.976090e+001,
3696875000, -2.194672e+001,
3698437500, -2.450480e+001,
3700000000, -2.641947e+001,
3701562500, -2.719211e+001,
3703125000, -2.791197e+001,
3704687500, -3.154569e+001,
3706250000, -3.412731e+001,
3707812500, -3.529053e+001,
3709375000, -3.515139e+001,
3710937500, -3.680530e+001,
3712500000, -3.934904e+001,
3714062500, -4.132971e+001,
3715625000, -4.553206e+001,
3717187500, -4.621467e+001,
3718750000, -4.696552e+001,
3720312500, -4.828571e+001,
3721875000, -5.105717e+001,
3723437500, -5.375145e+001,
3725000000, -5.591180e+001,
3726562500, -5.895874e+001,
3728125000, -6.067621e+001,
3729687500, -6.074215e+001,
3731250000, -6.083559e+001,
3732812500, -6.450148e+001,
3734375000, -6.806375e+001,
3735937500, -7.011141e+001,
3737500000, -7.093326e+001,
3739062500, -7.188777e+001,
3740625000, -7.354908e+001,
3742187500, -7.515605e+001,
3743750000, -7.824329e+001,
3745312500, -8.224802e+001,
3746875000, -8.317344e+001,
3748437500, -8.396608e+001,
3750000000, -8.490872e+001,
3751562500, -8.717194e+001,
3753125000, -8.930881e+001,
3754687500, -9.383583e+001,
3756250000, -9.533578e+001,
3757812500, -9.645833e+001,
3759375000, -9.701967e+001,
3760937500, -9.710509e+001,
3762500000, -9.988695e+001,
3764062500, -1.033499e+002,
3765625000, -1.065810e+002,
3767187500, -1.086613e+002,
3768750000, -1.091136e+002,
3770312500, -1.101713e+002,
3771875000, -1.116109e+002,
3773437500, -1.140987e+002,
3775000000, -1.187075e+002,
3776562500, -1.220677e+002,
3778125000, -1.224104e+002,
3779687500, -1.236476e+002,
3781250000, -1.241542e+002,
3782812500, -1.260650e+002,
3784375000, -1.307728e+002,
3785937500, -1.345773e+002,
3787500000, -1.366892e+002,
3789062500, -1.388730e+002,
3790625000, -1.384381e+002,
3792187500, -1.389847e+002,
3793750000, -1.438722e+002,
3795312500, -1.464297e+002,
3796875000, -1.497337e+002,
3798437500, -1.525599e+002,
3800000000, -1.546685e+002,
3801562500, -1.562184e+002,
3803125000, -1.564352e+002,
3804687500, -1.590379e+002,
3806250000, -1.636648e+002,
3807812500, -1.691805e+002,
3809375000, -1.701608e+002,
3810937500, -1.713674e+002,
3812500000, -1.697482e+002,
3814062500, -1.721106e+002,
3815625000, -1.755818e+002,
3817187500, -1.788948e+002,
3818750000, 1.785567e+002,
3820312500, 1.743203e+002,
3821875000, 1.727824e+002,
3823437500, 1.752093e+002,
3825000000, 1.728210e+002,
3826562500, 1.691418e+002,
3828125000, 1.667829e+002,
3829687500, 1.627027e+002,
3831250000, 1.604997e+002,
3832812500, 1.591957e+002,
3834375000, 1.578683e+002,
3835937500, 1.573690e+002,
3837500000, 1.574905e+002,
3839062500, 1.519545e+002,
3840625000, 1.465034e+002,
3842187500, 1.446196e+002,
3843750000, 1.468802e+002,
3845312500, 1.466441e+002,
3846875000, 1.453111e+002,
3848437500, 1.423078e+002,
3850000000, 1.408316e+002,
3851562500, 1.392189e+002,
3853125000, 1.345881e+002,
3854687500, 1.317971e+002,
3856250000, 1.334869e+002,
3857812500, 1.330980e+002,
3859375000, 1.315794e+002,
3860937500, 1.289738e+002,
3862500000, 1.254265e+002,
3864062500, 1.231408e+002,
3865625000, 1.212881e+002,
3867187500, 1.183223e+002,
3868750000, 1.167102e+002,
3870312500, 1.198127e+002,
3871875000, 1.181043e+002,
3873437500, 1.120933e+002,
3875000000, 1.082143e+002,
3876562500, 1.077401e+002,
3878125000, 1.077805e+002,
3879687500, 1.075721e+002,
3881250000, 1.064949e+002,
3882812500, 1.040049e+002,
3884375000, 1.029062e+002,
3885937500, 1.009772e+002,
3887500000, 9.569611e+001,
3889062500, 9.585865e+001,
3890625000, 9.423633e+001,
3892187500, 9.374989e+001,
3893750000, 9.560607e+001,
3895312500, 9.223783e+001,
3896875000, 8.778400e+001,
3898437500, 8.475848e+001,
3900000000, 8.386707e+001,
3901562500, 8.096248e+001,
3903125000, 7.587133e+001,
3904687500, 7.607581e+001,
3906250000, 8.190953e+001,
3907812500, 7.812401e+001,
3909375000, 7.206315e+001,
3910937500, 7.054999e+001,
3912500000, 6.726297e+001,
3914062500, 6.715732e+001,
3915625000, 6.914862e+001,
3917187500, 6.749436e+001,
3918750000, 6.419937e+001,
3920312500, 6.130107e+001,
3921875000, 5.849145e+001,
3923437500, 5.465983e+001,
3925000000, 5.293690e+001,
3926562500, 5.150320e+001,
3928125000, 4.945119e+001,
3929687500, 4.935362e+001,
3931250000, 4.862048e+001,
3932812500, 4.540753e+001,
3934375000, 4.136410e+001,
3935937500, 3.827330e+001,
3937500000, 3.583194e+001,
3939062500, 3.161635e+001,
3940625000, 2.816777e+001,
3942187500, 3.511115e+001,
3943750000, 3.278850e+001,
3945312500, 2.895357e+001,
3946875000, 2.634405e+001,
3948437500, 2.329618e+001,
3950000000, 1.753631e+001,
3951562500, 1.553981e+001,
3953125000, 1.583259e+001,
3954687500, 1.820181e+001,
3956250000, 1.794417e+001,
3957812500, 1.263443e+001,
3959375000, 7.995324e+000,
3960937500, 3.640736e+000,
3962500000, 3.495666e+000,
3964062500, 1.370959e+000,
3965625000, -1.180264e+000,
3967187500, -2.480039e+000,
3968750000, -1.997678e+000,
3970312500, -4.923645e+000,
3971875000, -7.961703e+000,
3973437500, -1.142487e+001,
3975000000, -1.864422e+001,
3976562500, -2.220335e+001,
3978125000, -2.505453e+001,
3979687500, -1.363848e+001,
3981250000, -1.203222e+001,
3982812500, -1.962708e+001,
3984375000, -2.448013e+001,
3985937500, -2.444343e+001,
3987500000, -2.786867e+001,
3989062500, -3.442431e+001,
3990625000, -3.938018e+001,
3992187500, -3.894623e+001,
3993750000, -3.343550e+001,
3995312500, -3.340942e+001,
3996875000, -3.673917e+001,
3998437500, -4.039223e+001,
4000000000, -4.453727e+001,
4001562500, -4.647305e+001,
4003125000, -5.165096e+001,
4004687500, -5.341273e+001,
4006250000, -5.560514e+001,
4007812500, -5.370812e+001,
4009375000, -5.511440e+001,
4010937500, -5.762053e+001,
4012500000, -6.358355e+001,
4014062500, -6.801069e+001,
4015625000, -7.115490e+001,
4017187500, -7.372182e+001,
4018750000, -7.590850e+001,
4020312500, -6.675373e+001,
4021875000, -6.293590e+001,
4023437500, -6.910945e+001,
4025000000, -7.363516e+001,
4026562500, -7.351056e+001,
4028125000, -7.679822e+001,
4029687500, -8.532117e+001,
4031250000, -9.168941e+001,
4032812500, -9.158368e+001,
4034375000, -8.806556e+001,
4035937500, -8.945120e+001,
4037500000, -8.741025e+001,
4039062500, -8.950248e+001,
4040625000, -9.562193e+001,
4042187500, -1.005629e+002,
4043750000, -1.008689e+002,
4045312500, -1.069715e+002,
4046875000, -1.113119e+002,
4048437500, -1.132094e+002,
4050000000, -1.143252e+002,
4051562500, -1.135022e+002,
4053125000, -1.142479e+002,
4054687500, -1.149326e+002,
4056250000, -1.150104e+002,
4057812500, -1.096429e+002,
4059375000, -1.252284e+002,
4060937500, -1.375420e+002,
4062500000, -1.365880e+002,
4064062500, -1.227520e+002,
4065625000, -1.147471e+002,
4067187500, -1.204487e+002,
4068750000, -1.303542e+002,
4070312500, -1.343501e+002,
4071875000, -1.365670e+002,
4073437500, -1.386394e+002,
4075000000, -1.456487e+002,
4076562500, -1.513453e+002,
4078125000, -1.566408e+002,
4079687500, -1.460559e+002,
4081250000, -1.390816e+002,
4082812500, -1.441257e+002,
4084375000, -1.515769e+002,
4085937500, -1.542510e+002,
4087500000, -1.588494e+002,
4089062500, -1.656690e+002,
4090625000, -1.695456e+002,
4092187500, -1.695862e+002,
4093750000, -1.708405e+002,
4095312500, -1.771495e+002,
4096875000, -1.739462e+002,
4098437500, -1.700657e+002,
4100000000, -1.587393e+002,
4101562500, -1.576705e+002,
4103125000, -1.715218e+002,
4104687500, 1.733594e+002,
4106250000, 1.611368e+002,
4107812500, 1.611840e+002,
4109375000, 1.786091e+002,
4110937500, -1.758153e+002,
4112500000, 1.782380e+002,
4114062500, 1.696820e+002,
4115625000, 1.718683e+002,
4117187500, 1.769204e+002,
4118750000, 1.697092e+002,
4120312500, 1.586313e+002,
4121875000, 1.487417e+002,
4123437500, 1.439582e+002,
4125000000, 1.445593e+002,
4126562500, 1.539318e+002,
4128125000, 1.545197e+002,
4129687500, 1.526899e+002,
4131250000, 1.548210e+002,
4132812500, 1.477787e+002,
