"S12 Phase"
"Frequency (Hz)","Deg",
3000000000, 1.607757e+002,
3001562500, 1.581307e+002,
3003125000, 1.568182e+002,
3004687500, 1.545458e+002,
3006250000, 1.526629e+002,
3007812500, 1.510090e+002,
3009375000, 1.493246e+002,
3010937500, 1.471175e+002,
3012500000, 1.451132e+002,
3014062500, 1.435273e+002,
3015625000, 1.415825e+002,
3017187500, 1.396119e+002,
3018750000, 1.376605e+002,
3020312500, 1.354712e+002,
3021875000, 1.336343e+002,
3023437500, 1.315842e+002,
3025000000, 1.296967e+002,
3026562500, 1.274344e+002,
3028125000, 1.255723e+002,
3029687500, 1.237461e+002,
3031250000, 1.215688e+002,
3032812500, 1.198387e+002,
3034375000, 1.175198e+002,
3035937500, 1.152252e+002,
3037500000, 1.134571e+002,
3039062500, 1.115455e+002,
3040625000, 1.091162e+002,
3042187500, 1.070142e+002,
3043750000, 1.052179e+002,
3045312500, 1.028269e+002,
3046875000, 1.008630e+002,
3048437500, 9.872537e+001,
3050000000, 9.640308e+001,
3051562500, 9.420531e+001,
3053125000, 9.198725e+001,
3054687500, 8.999355e+001,
3056250000, 8.767816e+001,
3057812500, 8.546054e+001,
3059375000, 8.339620e+001,
3060937500, 8.080325e+001,
3062500000, 7.865901e+001,
3064062500, 7.638955e+001,
3065625000, 7.445095e+001,
3067187500, 7.199592e+001,
3068750000, 6.957558e+001,
3070312500, 6.736141e+001,
3071875000, 6.565101e+001,
3073437500, 6.351672e+001,
3075000000, 6.083341e+001,
3076562500, 5.892404e+001,
3078125000, 5.640574e+001,
3079687500, 5.445088e+001,
3081250000, 5.219125e+001,
3082812500, 4.983820e+001,
3084375000, 4.764062e+001,
3085937500, 4.556939e+001,
3087500000, 4.340316e+001,
3089062500, 4.138542e+001,
3090625000, 3.931074e+001,
3092187500, 3.706734e+001,
3093750000, 3.484884e+001,
3095312500, 3.283975e+001,
3096875000, 3.084499e+001,
3098437500, 2.866188e+001,
3100000000, 2.640573e+001,
3101562500, 2.464521e+001,
3103125000, 2.258792e+001,
3104687500, 2.029272e+001,
3106250000, 1.796444e+001,
3107812500, 1.584873e+001,
3109375000, 1.372261e+001,
3110937500, 1.141202e+001,
3112500000, 9.553477e+000,
3114062500, 7.380331e+000,
3115625000, 5.532128e+000,
3117187500, 3.233615e+000,
3118750000, 8.477087e-001,
3120312500, -1.240728e+000,
3121875000, -3.220335e+000,
3123437500, -5.457055e+000,
3125000000, -7.446627e+000,
3126562500, -9.709029e+000,
3128125000, -1.148065e+001,
3129687500, -1.346820e+001,
3131250000, -1.583617e+001,
3132812500, -1.778820e+001,
3134375000, -1.996024e+001,
3135937500, -2.233211e+001,
3137500000, -2.429357e+001,
3139062500, -2.650735e+001,
3140625000, -2.856297e+001,
3142187500, -3.080853e+001,
3143750000, -3.316643e+001,
3145312500, -3.514629e+001,
3146875000, -3.695901e+001,
3148437500, -3.949152e+001,
3150000000, -4.172064e+001,
3151562500, -4.412462e+001,
3153125000, -4.608235e+001,
3154687500, -4.845172e+001,
3156250000, -5.056941e+001,
3157812500, -5.314262e+001,
3159375000, -5.494842e+001,
3160937500, -5.722018e+001,
3162500000, -5.969260e+001,
3164062500, -6.186289e+001,
3165625000, -6.373207e+001,
3167187500, -6.629408e+001,
3168750000, -6.843851e+001,
3170312500, -7.056477e+001,
3171875000, -7.293697e+001,
3173437500, -7.500816e+001,
3175000000, -7.699970e+001,
3176562500, -7.940288e+001,
3178125000, -8.148622e+001,
3179687500, -8.387628e+001,
3181250000, -8.571504e+001,
3182812500, -8.811837e+001,
3184375000, -9.034892e+001,
3185937500, -9.242270e+001,
3187500000, -9.451652e+001,
3189062500, -9.684055e+001,
3190625000, -9.883864e+001,
3192187500, -1.013435e+002,
3193750000, -1.031900e+002,
3195312500, -1.055523e+002,
3196875000, -1.076440e+002,
3198437500, -1.097470e+002,
3200000000, -1.119834e+002,
3201562500, -1.137268e+002,
3203125000, -1.160962e+002,
3204687500, -1.176200e+002,
3206250000, -1.200854e+002,
3207812500, -1.217980e+002,
3209375000, -1.239787e+002,
3210937500, -1.257922e+002,
3212500000, -1.281385e+002,
3214062500, -1.299718e+002,
3215625000, -1.319563e+002,
3217187500, -1.340861e+002,
3218750000, -1.359648e+002,
3220312500, -1.377611e+002,
3221875000, -1.398595e+002,
3223437500, -1.413443e+002,
3225000000, -1.436864e+002,
3226562500, -1.451726e+002,
3228125000, -1.474944e+002,
3229687500, -1.492040e+002,
3231250000, -1.506983e+002,
3232812500, -1.528861e+002,
3234375000, -1.548867e+002,
3235937500, -1.563641e+002,
3237500000, -1.584029e+002,
3239062500, -1.602103e+002,
3240625000, -1.617143e+002,
3242187500, -1.639440e+002,
3243750000, -1.657071e+002,
3245312500, -1.676056e+002,
3246875000, -1.690393e+002,
3248437500, -1.707909e+002,
3250000000, -1.725524e+002,
3251562500, -1.742622e+002,
3253125000, -1.757065e+002,
3254687500, -1.779388e+002,
3256250000, -1.792082e+002,
3257812500, 1.786066e+002,
3259375000, 1.769019e+002,
3260937500, 1.751992e+002,
3262500000, 1.737626e+002,
3264062500, 1.722160e+002,
3265625000, 1.709407e+002,
3267187500, 1.687627e+002,
3268750000, 1.670001e+002,
3270312500, 1.654009e+002,
3271875000, 1.632352e+002,
3273437500, 1.616107e+002,
3275000000, 1.597665e+002,
3276562500, 1.580956e+002,
3278125000, 1.564510e+002,
3279687500, 1.548445e+002,
3281250000, 1.531605e+002,
3282812500, 1.507535e+002,
3284375000, 1.490896e+002,
3285937500, 1.473205e+002,
3287500000, 1.458975e+002,
3289062500, 1.438884e+002,
3290625000, 1.419136e+002,
3292187500, 1.401705e+002,
3293750000, 1.385913e+002,
3295312500, 1.364682e+002,
3296875000, 1.344462e+002,
3298437500, 1.326824e+002,
3300000000, 1.308995e+002,
3301562500, 1.288509e+002,
3303125000, 1.272986e+002,
3304687500, 1.249748e+002,
3306250000, 1.236461e+002,
3307812500, 1.212280e+002,
3309375000, 1.191105e+002,
3310937500, 1.169392e+002,
3312500000, 1.150118e+002,
3314062500, 1.129919e+002,
3315625000, 1.108897e+002,
3317187500, 1.093755e+002,
3318750000, 1.068256e+002,
3320312500, 1.051300e+002,
3321875000, 1.025090e+002,
3323437500, 1.007372e+002,
3325000000, 9.879602e+001,
3326562500, 9.624109e+001,
3328125000, 9.435316e+001,
3329687500, 9.236511e+001,
3331250000, 9.018203e+001,
3332812500, 8.779603e+001,
3334375000, 8.558783e+001,
3335937500, 8.362890e+001,
3337500000, 8.142896e+001,
3339062500, 7.895774e+001,
3340625000, 7.663082e+001,
3342187500, 7.456723e+001,
3343750000, 7.191936e+001,
3345312500, 6.991888e+001,
3346875000, 6.748919e+001,
3348437500, 6.557229e+001,
3350000000, 6.321725e+001,
3351562500, 6.064866e+001,
3353125000, 5.865594e+001,
3354687500, 5.619308e+001,
3356250000, 5.383839e+001,
3357812500, 5.157240e+001,
3359375000, 4.912242e+001,
3360937500, 4.735394e+001,
3362500000, 4.428878e+001,
3364062500, 4.231785e+001,
3365625000, 3.997509e+001,
3367187500, 3.709165e+001,
3368750000, 3.537852e+001,
3370312500, 3.285242e+001,
3371875000, 3.065538e+001,
3373437500, 2.850417e+001,
3375000000, 2.592144e+001,
3376562500, 2.428101e+001,
3378125000, 2.154634e+001,
3379687500, 1.974741e+001,
3381250000, 1.750857e+001,
3382812500, 1.533195e+001,
3384375000, 1.367210e+001,
3385937500, 1.139495e+001,
3387500000, 9.227103e+000,
3389062500, 6.762659e+000,
3390625000, 4.888641e+000,
3392187500, 2.946934e+000,
3393750000, 1.230269e+000,
3395312500, -9.928319e-001,
3396875000, -3.385022e+000,
3398437500, -5.297301e+000,
3400000000, -7.300630e+000,
3401562500, -9.020866e+000,
3403125000, -1.131940e+001,
3404687500, -1.324836e+001,
3406250000, -1.510138e+001,
3407812500, -1.739341e+001,
3409375000, -1.910949e+001,
3410937500, -2.100402e+001,
3412500000, -2.334450e+001,
3414062500, -2.522406e+001,
3415625000, -2.672398e+001,
3417187500, -2.890300e+001,
3418750000, -3.051481e+001,
3420312500, -3.237748e+001,
3421875000, -3.387789e+001,
3423437500, -3.548867e+001,
3425000000, -3.834474e+001,
3426562500, -3.983447e+001,
3428125000, -4.142883e+001,
3429687500, -4.368243e+001,
3431250000, -4.546119e+001,
3432812500, -4.725808e+001,
3434375000, -4.932796e+001,
3435937500, -5.129153e+001,
3437500000, -5.292068e+001,
3439062500, -5.546558e+001,
3440625000, -5.708060e+001,
3442187500, -5.861356e+001,
3443750000, -6.108687e+001,
3445312500, -6.256136e+001,
3446875000, -6.458341e+001,
3448437500, -6.668556e+001,
3450000000, -6.861422e+001,
3451562500, -7.051767e+001,
3453125000, -7.228849e+001,
3454687500, -7.420407e+001,
3456250000, -7.625059e+001,
3457812500, -7.832264e+001,
3459375000, -8.033036e+001,
3460937500, -8.211541e+001,
3462500000, -8.412580e+001,
3464062500, -8.589535e+001,
3465625000, -8.830296e+001,
3467187500, -9.015404e+001,
3468750000, -9.272167e+001,
3470312500, -9.419722e+001,
3471875000, -9.666237e+001,
3473437500, -9.884579e+001,
3475000000, -1.009226e+002,
3476562500, -1.030308e+002,
3478125000, -1.053411e+002,
3479687500, -1.076247e+002,
3481250000, -1.099565e+002,
3482812500, -1.121122e+002,
3484375000, -1.144041e+002,
3485937500, -1.162228e+002,
3487500000, -1.188069e+002,
3489062500, -1.207270e+002,
3490625000, -1.228257e+002,
3492187500, -1.249131e+002,
3493750000, -1.269937e+002,
3495312500, -1.291432e+002,
3496875000, -1.310835e+002,
3498437500, -1.332454e+002,
3500000000, -1.361348e+002,
3501562500, -1.376918e+002,
3503125000, -1.403670e+002,
3504687500, -1.430063e+002,
3506250000, -1.450572e+002,
3507812500, -1.474844e+002,
3509375000, -1.493607e+002,
3510937500, -1.522103e+002,
3512500000, -1.537074e+002,
3514062500, -1.557274e+002,
3515625000, -1.582698e+002,
3517187500, -1.597383e+002,
3518750000, -1.616537e+002,
3520312500, -1.640647e+002,
3521875000, -1.656920e+002,
3523437500, -1.676003e+002,
3525000000, -1.695890e+002,
3526562500, -1.720064e+002,
3528125000, -1.739933e+002,
3529687500, -1.756797e+002,
3531250000, -1.773963e+002,
3532812500, 1.797474e+002,
3534375000, 1.780975e+002,
3535937500, 1.759956e+002,
3537500000, 1.736055e+002,
3539062500, 1.716278e+002,
3540625000, 1.695638e+002,
3542187500, 1.680209e+002,
3543750000, 1.658651e+002,
3545312500, 1.642198e+002,
3546875000, 1.626139e+002,
3548437500, 1.600170e+002,
3550000000, 1.583891e+002,
3551562500, 1.570688e+002,
3553125000, 1.549007e+002,
3554687500, 1.533146e+002,
3556250000, 1.508261e+002,
3557812500, 1.492336e+002,
3559375000, 1.474962e+002,
3560937500, 1.454633e+002,
3562500000, 1.440974e+002,
3564062500, 1.420617e+002,
3565625000, 1.404041e+002,
3567187500, 1.386573e+002,
3568750000, 1.363714e+002,
3570312500, 1.346269e+002,
3571875000, 1.323596e+002,
3573437500, 1.303818e+002,
3575000000, 1.289037e+002,
3576562500, 1.267241e+002,
3578125000, 1.255465e+002,
3579687500, 1.234816e+002,
3581250000, 1.215775e+002,
3582812500, 1.198866e+002,
3584375000, 1.179053e+002,
3585937500, 1.160702e+002,
3587500000, 1.146443e+002,
3589062500, 1.124669e+002,
3590625000, 1.102643e+002,
3592187500, 1.080871e+002,
3593750000, 1.065121e+002,
3595312500, 1.043861e+002,
3596875000, 1.027556e+002,
3598437500, 1.005805e+002,
3600000000, 9.852162e+001,
3601562500, 9.669395e+001,
3603125000, 9.442125e+001,
3604687500, 9.214431e+001,
3606250000, 8.998605e+001,
3607812500, 8.848028e+001,
3609375000, 8.583471e+001,
3610937500, 8.370094e+001,
3612500000, 8.150641e+001,
3614062500, 7.954050e+001,
3615625000, 7.829842e+001,
3617187500, 7.562398e+001,
3618750000, 7.337120e+001,
3620312500, 7.202386e+001,
3621875000, 6.938955e+001,
3623437500, 6.733927e+001,
3625000000, 6.550271e+001,
3626562500, 6.376947e+001,
3628125000, 6.086204e+001,
3629687500, 5.868354e+001,
3631250000, 5.686024e+001,
3632812500, 5.434269e+001,
3634375000, 5.268030e+001,
3635937500, 5.047233e+001,
3637500000, 4.817935e+001,
3639062500, 4.605172e+001,
3640625000, 4.445496e+001,
3642187500, 4.157628e+001,
3643750000, 3.994505e+001,
3645312500, 3.744745e+001,
3646875000, 3.570329e+001,
3648437500, 3.305035e+001,
3650000000, 3.092017e+001,
3651562500, 2.880590e+001,
3653125000, 2.738227e+001,
3654687500, 2.557165e+001,
3656250000, 2.355918e+001,
3657812500, 2.086700e+001,
3659375000, 1.949920e+001,
3660937500, 1.698317e+001,
3662500000, 1.534123e+001,
3664062500, 1.322334e+001,
3665625000, 1.047547e+001,
3667187500, 9.126138e+000,
3668750000, 6.970104e+000,
3670312500, 4.629318e+000,
3671875000, 2.989888e+000,
3673437500, 1.819412e+000,
3675000000, -6.211822e-002,
3676562500, -1.774544e+000,
3678125000, -3.993495e+000,
3679687500, -5.428659e+000,
3681250000, -7.666083e+000,
3682812500, -9.431434e+000,
3684375000, -1.141917e+001,
3685937500, -1.326827e+001,
3687500000, -1.538765e+001,
3689062500, -1.791058e+001,
3690625000, -1.958682e+001,
3692187500, -2.217932e+001,
3693750000, -2.368684e+001,
3695312500, -2.463239e+001,
3696875000, -2.636765e+001,
3698437500, -2.769480e+001,
3700000000, -2.969567e+001,
3701562500, -3.208047e+001,
3703125000, -3.333036e+001,
3704687500, -3.583357e+001,
3706250000, -3.759028e+001,
3707812500, -3.903210e+001,
3709375000, -4.063073e+001,
3710937500, -4.253962e+001,
3712500000, -4.466267e+001,
3714062500, -4.646289e+001,
3715625000, -4.837109e+001,
3717187500, -4.801315e+001,
3718750000, -4.951981e+001,
3720312500, -5.077043e+001,
3721875000, -5.241209e+001,
3723437500, -5.447942e+001,
3725000000, -5.646451e+001,
3726562500, -5.710038e+001,
3728125000, -6.023240e+001,
3729687500, -6.145726e+001,
3731250000, -6.270687e+001,
3732812500, -6.468813e+001,
3734375000, -6.536347e+001,
3735937500, -6.863092e+001,
3737500000, -6.982803e+001,
3739062500, -7.116033e+001,
3740625000, -7.118881e+001,
3742187500, -7.288024e+001,
3743750000, -7.449257e+001,
3745312500, -7.716087e+001,
3746875000, -7.798619e+001,
3748437500, -7.990836e+001,
3750000000, -8.053992e+001,
3751562500, -8.356562e+001,
3753125000, -8.595659e+001,
3754687500, -8.731122e+001,
3756250000, -8.971815e+001,
3757812500, -8.904564e+001,
3759375000, -9.225629e+001,
3760937500, -9.496494e+001,
3762500000, -9.634683e+001,
3764062500, -9.686720e+001,
3765625000, -9.675831e+001,
3767187500, -9.892601e+001,
3768750000, -1.004767e+002,
3770312500, -1.024528e+002,
3771875000, -1.048144e+002,
3773437500, -1.056875e+002,
3775000000, -1.072397e+002,
3776562500, -1.097505e+002,
3778125000, -1.125591e+002,
3779687500, -1.161284e+002,
3781250000, -1.162168e+002,
3782812500, -1.158056e+002,
3784375000, -1.196732e+002,
3785937500, -1.227338e+002,
3787500000, -1.247877e+002,
3789062500, -1.249756e+002,
3790625000, -1.271208e+002,
3792187500, -1.288257e+002,
3793750000, -1.321274e+002,
3795312500, -1.350514e+002,
3796875000, -1.376263e+002,
3798437500, -1.393181e+002,
3800000000, -1.406933e+002,
3801562500, -1.441873e+002,
3803125000, -1.459991e+002,
3804687500, -1.496509e+002,
3806250000, -1.512704e+002,
3807812500, -1.513010e+002,
3809375000, -1.528950e+002,
3810937500, -1.561537e+002,
3812500000, -1.604719e+002,
3814062500, -1.599122e+002,
3815625000, -1.609443e+002,
3817187500, -1.633025e+002,
3818750000, -1.655810e+002,
3820312500, -1.676262e+002,
3821875000, -1.714134e+002,
3823437500, -1.732176e+002,
3825000000, -1.734159e+002,
3826562500, -1.763962e+002,
3828125000, -1.787640e+002,
3829687500, 1.793945e+002,
3831250000, 1.754695e+002,
3832812500, 1.741375e+002,
3834375000, 1.745333e+002,
3835937500, 1.740249e+002,
3837500000, 1.688419e+002,
3839062500, 1.661586e+002,
3840625000, 1.659773e+002,
3842187500, 1.650769e+002,
3843750000, 1.632969e+002,
3845312500, 1.621997e+002,
3846875000, 1.577441e+002,
3848437500, 1.567815e+002,
3850000000, 1.539084e+002,
3851562500, 1.540797e+002,
3853125000, 1.518706e+002,
3854687500, 1.489426e+002,
3856250000, 1.471553e+002,
3857812500, 1.458894e+002,
3859375000, 1.415392e+002,
3860937500, 1.406964e+002,
3862500000, 1.421162e+002,
3864062500, 1.408210e+002,
3865625000, 1.365383e+002,
3867187500, 1.321535e+002,
3868750000, 1.327074e+002,
3870312500, 1.323070e+002,
3871875000, 1.312602e+002,
3873437500, 1.293298e+002,
3875000000, 1.255778e+002,
3876562500, 1.226820e+002,
3878125000, 1.211672e+002,
3879687500, 1.209383e+002,
3881250000, 1.185048e+002,
3882812500, 1.160383e+002,
3884375000, 1.137802e+002,
3885937500, 1.128199e+002,
3887500000, 1.097245e+002,
3889062500, 1.046668e+002,
3890625000, 1.071939e+002,
3892187500, 1.082631e+002,
3893750000, 1.043135e+002,
3895312500, 1.003561e+002,
3896875000, 9.780141e+001,
3898437500, 9.623678e+001,
3900000000, 9.559512e+001,
3901562500, 9.672264e+001,
3903125000, 9.403575e+001,
3904687500, 8.813426e+001,
3906250000, 8.454491e+001,
3907812500, 8.474817e+001,
3909375000, 8.504379e+001,
3910937500, 8.136082e+001,
3912500000, 7.778907e+001,
3914062500, 7.916221e+001,
3915625000, 7.557795e+001,
3917187500, 7.141228e+001,
3918750000, 7.081886e+001,
3920312500, 6.867500e+001,
3921875000, 6.994017e+001,
3923437500, 6.663979e+001,
3925000000, 6.480824e+001,
3926562500, 6.218125e+001,
3928125000, 5.677827e+001,
3929687500, 5.240886e+001,
3931250000, 5.990495e+001,
3932812500, 5.666342e+001,
3934375000, 5.107888e+001,
3935937500, 4.711351e+001,
3937500000, 4.248223e+001,
3939062500, 4.457832e+001,
3940625000, 4.387880e+001,
3942187500, 4.101825e+001,
3943750000, 4.052137e+001,
3945312500, 3.577815e+001,
3946875000, 3.389148e+001,
3948437500, 3.235071e+001,
3950000000, 2.988141e+001,
3951562500, 2.623050e+001,
3953125000, 2.665570e+001,
3954687500, 2.546110e+001,
3956250000, 2.587468e+001,
3957812500, 2.376933e+001,
3959375000, 1.358397e+001,
3960937500, 9.854194e+000,
3962500000, 1.466856e+001,
3964062500, 1.643076e+001,
3965625000, 1.212330e+001,
3967187500, 5.524182e+000,
3968750000, 1.470954e+000,
3970312500, 1.542145e+000,
3971875000, -1.479802e+000,
3973437500, 1.829963e+000,
3975000000, -1.340907e-001,
3976562500, -7.459460e+000,
3978125000, -6.926076e+000,
3979687500, -7.816568e+000,
3981250000, -1.113909e+001,
3982812500, -1.547101e+001,
3984375000, -1.539227e+001,
3985937500, -1.850090e+001,
3987500000, -1.944715e+001,
3989062500, -1.392884e+001,
3990625000, -2.042981e+001,
3992187500, -2.862210e+001,
3993750000, -3.156342e+001,
3995312500, -2.965318e+001,
3996875000, -2.826623e+001,
3998437500, -3.138848e+001,
4000000000, -3.540361e+001,
4001562500, -3.785643e+001,
4003125000, -3.959129e+001,
4004687500, -4.303596e+001,
4006250000, -3.663777e+001,
4007812500, -4.327794e+001,
4009375000, -4.586628e+001,
4010937500, -4.573845e+001,
4012500000, -5.155066e+001,
4014062500, -5.406894e+001,
4015625000, -5.300325e+001,
4017187500, -5.354244e+001,
4018750000, -5.648707e+001,
4020312500, -6.061892e+001,
4021875000, -6.083170e+001,
4023437500, -5.689881e+001,
4025000000, -6.443437e+001,
4026562500, -7.080615e+001,
4028125000, -6.826803e+001,
4029687500, -6.529394e+001,
4031250000, -7.209033e+001,
4032812500, -8.001151e+001,
4034375000, -7.789205e+001,
4035937500, -7.471921e+001,
4037500000, -8.198150e+001,
4039062500, -7.890441e+001,
4040625000, -8.467996e+001,
4042187500, -8.504848e+001,
4043750000, -8.404613e+001,
4045312500, -8.451156e+001,
4046875000, -9.390798e+001,
4048437500, -1.020513e+002,
4050000000, -9.835904e+001,
4051562500, -8.990222e+001,
4053125000, -9.447085e+001,
4054687500, -1.006311e+002,
4056250000, -1.020150e+002,
4057812500, -1.012105e+002,
4059375000, -1.120007e+002,
4060937500, -1.139757e+002,
4062500000, -1.119352e+002,
4064062500, -1.050632e+002,
4065625000, -1.060067e+002,
4067187500, -1.169928e+002,
4068750000, -1.222790e+002,
4070312500, -1.280593e+002,
4071875000, -1.278827e+002,
4073437500, -1.191466e+002,
4075000000, -1.219980e+002,
4076562500, -1.323132e+002,
4078125000, -1.315016e+002,
4079687500, -1.241870e+002,
4081250000, -1.308208e+002,
4082812500, -1.450422e+002,
4084375000, -1.488437e+002,
4085937500, -1.463425e+002,
4087500000, -1.374756e+002,
4089062500, -1.405660e+002,
4090625000, -1.467755e+002,
4092187500, -1.411591e+002,
4093750000, -1.453141e+002,
4095312500, -1.568020e+002,
4096875000, -1.679967e+002,
4098437500, -1.733420e+002,
4100000000, -1.574876e+002,
4101562500, -1.535189e+002,
4103125000, -1.518477e+002,
4104687500, -1.567782e+002,
4106250000, -1.696565e+002,
4107812500, 1.794655e+002,
4109375000, 1.758826e+002,
4110937500, -1.765850e+002,
4112500000, -1.767978e+002,
4114062500, -1.702966e+002,
4115625000, -1.709582e+002,
4117187500, -1.743052e+002,
4118750000, 1.725058e+002,
4120312500, 1.695155e+002,
4121875000, 1.704595e+002,
4123437500, 1.706873e+002,
4125000000, 1.666339e+002,
4126562500, 1.596796e+002,
4128125000, 1.673621e+002,
4129687500, 1.763771e+002,
4131250000, 1.675833e+002,
